10	9
10.01	4
10.02	4
10.03	7
10.04	4
10.05	7
10.06	7
10.07	8
10.08	5
10.09	7
10.1	6
10.11	3
10.12	8
10.13	5
10.14	7
10.15	4
10.16	8
10.17	9
10.18	4
10.19	5
10.2	6
10.21	10
10.22	5
10.23	9
10.24	10
10.25	5
10.26	9
10.27	4
10.28	7
10.29	8
10.3	9
10.31	8
10.32	4
10.33	4
10.34	10
10.35	8
10.36	9
10.37	10
10.38	6
10.39	7
10.4	9
10.41	5
10.42	6
10.43	7
10.44	4
10.45	8
10.46	6
10.47	3
10.48	7
10.49	4
10.5	9
10.51	6
10.52	4
10.53	11
10.54	8
10.55	5
10.56	9
10.57	8
10.58	6
10.59	7
10.6	2
10.61	8
10.62	7
10.63	6
10.64	6
10.65	5
10.66	7
10.67	6
10.68	6
10.69	5
10.7	9
10.71	9
10.72	5
10.73	6
10.74	6
10.75	7
10.76	9
10.77	3
10.78	8
10.79	6
10.8	3
10.81	8
10.82	8
10.83	2
10.84	8
10.85	7
10.86	2
10.87	5
10.88	6
10.89	4
10.9	13
10.91	4
10.92	4
10.93	8
10.94	12
10.95	5
10.96	2
10.97	6
10.98	5
10.99	9
11	7
11.01	6
11.02	4
11.03	11
11.04	6
11.05	4
11.06	4
11.07	6
11.08	5
11.09	8
11.1	9
11.11	5
11.12	7
11.13	2
11.14	10
11.15	7
11.16	5
11.17	10
11.18	7
11.19	1
11.2	8
11.21	7
11.22	4
11.23	10
11.24	7
11.25	11
11.26	3
11.27	5
11.28	7
11.29	4
11.3	8
11.31	7
11.32	5
11.33	2
11.34	7
11.35	8
11.36	4
11.37	7
11.38	8
11.39	9
11.4	5
11.41	11
11.42	9
11.43	9
11.44	6
11.45	7
11.46	9
11.47	6
11.48	10
11.49	4
11.5	5
11.51	4
11.52	3
11.53	6
11.54	6
11.55	5
11.56	7
11.57	10
11.58	6
11.59	4
11.6	6
11.61	9
11.62	6
11.63	4
11.64	8
11.65	8
11.66	5
11.67	9
11.68	5
11.69	7
11.7	9
11.71	7
11.72	6
11.73	3
11.74	7
11.75	9
11.76	9
11.77	8
11.78	5
11.79	8
11.8	7
11.81	1
11.82	12
11.83	6
11.84	8
11.85	7
11.86	7
11.87	4
11.88	9
11.89	1
11.9	5
11.91	4
11.92	2
11.93	6
11.94	3
11.95	9
11.96	10
11.97	13
11.98	4
11.99	4
12	8
12.01	10
12.02	2
12.03	10
12.04	5
12.05	5
12.06	12
12.07	9
12.08	6
12.09	8
12.1	5
12.11	6
12.12	9
12.13	7
12.14	5
12.15	7
12.16	6
12.17	4
12.18	7
12.19	10
12.2	9
12.21	10
12.22	3
12.23	4
12.24	6
12.25	7
12.26	7
12.27	2
12.28	8
12.29	5
12.3	3
12.31	7
12.32	7
12.33	5
12.34	6
12.35	7
12.36	9
12.37	6
12.38	2
12.39	4
12.4	9
12.41	8
12.42	8
12.43	6
12.44	9
12.45	8
12.46	3
12.47	10
12.48	5
12.49	8
12.5	5
12.51	8
12.52	7
12.53	12
12.54	8
12.55	9
12.56	7
12.57	8
12.58	8
12.59	5
12.6	9
12.61	9
12.62	8
12.63	2
12.64	5
12.65	7
12.66	5
12.67	6
12.68	7
12.69	3
12.7	6
12.71	8
12.72	4
12.73	7
12.74	9
12.75	7
12.76	3
12.77	6
12.78	7
12.79	6
12.8	2
12.81	2
12.82	1
12.83	5
12.84	2
12.85	8
12.86	4
12.87	6
12.88	4
12.89	2
12.9	2
12.91	9
12.92	4
12.93	4
12.94	9
12.95	10
12.96	4
12.97	8
12.98	6
12.99	3
13	9
13.01	8
13.02	6
13.03	10
13.04	8
13.05	6
13.06	4
13.07	12
13.08	12
13.09	11
13.1	5
13.11	4
13.12	4
13.13	3
13.14	10
13.15	8
13.16	1
13.17	3
13.18	5
13.19	8
13.2	9
13.21	6
13.22	4
13.23	3
13.24	8
13.25	3
13.26	5
13.27	7
13.28	9
13.29	4
13.3	4
13.31	2
13.32	4
13.33	2
13.34	5
13.35	6
13.36	9
13.37	8
13.38	10
13.39	9
13.4	6
13.41	4
13.42	11
13.43	7
13.44	8
13.45	8
13.46	10
13.47	3
13.48	7
13.49	11
13.5	8
13.51	6
13.52	13
13.53	7
13.54	2
13.55	6
13.56	13
13.57	5
13.58	8
13.59	6
13.6	5
13.61	9
13.62	9
13.63	5
13.64	9
13.65	3
13.66	3
13.67	10
13.68	5
13.69	6
13.7	6
13.71	7
13.72	5
13.73	5
13.74	7
13.75	3
13.76	8
13.77	9
13.78	7
13.79	10
13.8	7
13.81	6
13.82	11
13.83	3
13.84	8
13.85	7
13.86	6
13.87	9
13.88	4
13.89	10
13.9	8
13.91	4
13.92	9
13.93	5
13.94	5
13.95	11
13.96	9
13.97	10
13.98	9
13.99	12
14	9
14.01	7
14.02	7
14.03	4
14.04	7
14.05	7
14.06	7
14.07	8
14.08	8
14.09	8
14.1	3
14.11	10
14.12	3
14.13	4
14.14	7
14.15	6
14.16	7
14.17	7
14.18	13
14.19	11
14.2	11
14.21	13
14.22	7
14.23	6
14.24	7
14.25	6
14.26	9
14.27	9
14.28	4
14.29	4
14.3	9
14.31	7
14.32	8
14.33	5
14.34	12
14.35	8
14.36	3
14.37	4
14.38	2
14.39	1
14.4	11
14.41	6
14.42	4
14.43	6
14.44	5
14.45	3
14.46	19
14.47	8
14.48	4
14.49	10
14.5	8
14.51	5
14.52	6
14.53	4
14.54	12
14.55	3
14.56	12
14.57	10
14.58	8
14.59	7
14.6	6
14.61	6
14.62	6
14.63	8
14.64	12
14.65	10
14.66	11
14.67	9
14.68	6
14.69	3
14.7	6
14.71	8
14.72	7
14.73	12
14.74	10
14.75	8
14.76	4
14.77	6
14.78	7
14.79	7
14.8	7
14.81	12
14.82	7
14.83	10
14.84	7
14.85	7
14.86	15
14.87	13
14.88	5
14.89	11
14.9	11
14.91	5
14.92	10
14.93	9
14.94	18
14.95	17
14.96	15
14.97	7
14.98	18
14.99	14
15	9
15.01	17
15.02	8
15.03	11
15.04	9
15.05	9
15.06	14
15.07	22
15.08	34
15.09	21
15.1	35
15.11	41
15.12	42
15.13	37
15.14	53
15.15	44
15.16	45
15.17	42
15.18	55
15.19	40
15.2	51
15.21	33
15.22	27
15.23	30
15.24	26
15.25	17
15.26	13
15.27	15
15.28	10
15.29	14
15.3	9
15.31	14
15.32	14
15.33	16
15.34	15
15.35	9
15.36	14
15.37	11
15.38	8
15.39	16
15.4	9
15.41	8
15.42	14
15.43	5
15.44	4
15.45	9
15.46	12
15.47	9
15.48	7
15.49	9
15.5	7
15.51	9
15.52	10
15.53	8
15.54	9
15.55	8
15.56	3
15.57	6
15.58	7
15.59	5
15.6	3
15.61	6
15.62	7
15.63	12
15.64	10
15.65	6
15.66	4
15.67	7
15.68	6
15.69	9
15.7	10
15.71	8
15.72	10
15.73	4
15.74	10
15.75	8
15.76	6
15.77	4
15.78	3
15.79	4
15.8	9
15.81	8
15.82	9
15.83	4
15.84	4
15.85	9
15.86	5
15.87	2
15.88	7
15.89	8
15.9	5
15.91	8
15.92	5
15.93	11
15.94	6
15.95	4
15.96	7
15.97	8
15.98	9
15.99	9
16	9
16.01	6
16.02	7
16.03	12
16.04	2
16.05	8
16.06	8
16.07	4
16.08	7
16.09	10
16.1	17
16.11	12
16.12	4
16.13	10
16.14	8
16.15	11
16.16	10
16.17	6
16.18	9
16.19	9
16.2	8
16.21	5
16.22	7
16.23	8
16.24	7
16.25	6
16.26	12
16.27	5
16.28	8
16.29	4
16.3	6
16.31	7
16.32	6
16.33	6
16.34	14
16.35	7
16.36	7
16.37	8
16.38	6
16.39	7
16.4	6
16.41	7
16.42	5
16.43	13
16.44	7
16.45	9
16.46	3
16.47	7
16.48	5
16.49	9
16.5	8
16.51	6
16.52	6
16.53	4
16.54	6
16.55	9
16.56	6
16.57	4
16.58	9
16.59	10
16.6	6
16.61	6
16.62	7
16.63	10
16.64	8
16.65	10
16.66	8
16.67	14
16.68	9
16.69	6
16.7	6
16.71	6
16.72	6
16.73	9
16.74	4
16.75	8
16.76	11
16.77	5
16.78	6
16.79	12
16.8	5
16.81	5
16.82	11
16.83	9
16.84	7
16.85	6
16.86	6
16.87	9
16.88	8
16.89	10
16.9	10
16.91	6
16.92	6
16.93	7
16.94	5
16.95	5
16.96	4
16.97	5
16.98	7
16.99	4
17	3
17.01	5
17.02	1
17.03	8
17.04	5
17.05	16
17.06	11
17.07	8
17.08	4
17.09	9
17.1	9
17.11	6
17.12	12
17.13	9
17.14	7
17.15	9
17.16	8
17.17	5
17.18	5
17.19	4
17.2	4
17.21	5
17.22	6
17.23	5
17.24	10
17.25	1
17.26	10
17.27	3
17.28	6
17.29	9
17.3	7
17.31	10
17.32	6
17.33	9
17.34	4
17.35	3
17.36	8
17.37	5
17.38	9
17.39	8
17.4	11
17.41	1
17.42	6
17.43	10
17.44	6
17.45	11
17.46	5
17.47	10
17.48	8
17.49	10
17.5	4
17.51	7
17.52	4
17.53	5
17.54	10
17.55	3
17.56	5
17.57	2
17.58	14
17.59	3
17.6	8
17.61	6
17.62	10
17.63	12
17.64	6
17.65	10
17.66	10
17.67	5
17.68	6
17.69	6
17.7	7
17.71	8
17.72	10
17.73	6
17.74	11
17.75	7
17.76	8
17.77	10
17.78	6
17.79	12
17.8	9
17.81	2
17.82	14
17.83	3
17.84	12
17.85	6
17.86	12
17.87	4
17.88	7
17.89	7
17.9	7
17.91	8
17.92	4
17.93	7
17.94	6
17.95	10
17.96	11
17.97	7
17.98	6
17.99	8
18	9
18.01	5
18.02	5
18.03	5
18.04	6
18.05	11
18.06	6
18.07	4
18.08	7
18.09	5
18.1	6
18.11	5
18.12	10
18.13	9
18.14	8
18.15	9
18.16	14
18.17	5
18.18	8
18.19	7
18.2	7
18.21	9
18.22	9
18.23	6
18.24	7
18.25	5
18.26	9
18.27	8
18.28	3
18.29	7
18.3	12
18.31	7
18.32	5
18.33	4
18.34	5
18.35	7
18.36	6
18.37	3
18.38	7
18.39	11
18.4	8
18.41	11
18.42	2
18.43	6
18.44	6
18.45	1
18.46	6
18.47	10
18.48	9
18.49	9
18.5	8
18.51	11
18.52	8
18.53	9
18.54	6
18.55	3
18.56	11
18.57	6
18.58	3
18.59	7
18.6	6
18.61	10
18.62	4
18.63	5
18.64	5
18.65	6
18.66	10
18.67	4
18.68	7
18.69	3
18.7	5
18.71	8
18.72	9
18.73	3
18.74	8
18.75	3
18.76	8
18.77	5
18.78	5
18.79	5
18.8	10
18.81	10
18.82	5
18.83	9
18.84	10
18.85	10
18.86	10
18.87	2
18.88	9
18.89	5
18.9	5
18.91	11
18.92	6
18.93	10
18.94	8
18.95	10
18.96	7
18.97	8
18.98	3
18.99	5
19	8
19.01	9
19.02	9
19.03	6
19.04	3
19.05	5
19.06	4
19.07	7
19.08	1
19.09	8
19.1	9
19.11	6
19.12	6
19.13	9
19.14	13
19.15	7
19.16	9
19.17	4
19.18	5
19.19	13
19.2	5
19.21	5
19.22	8
19.23	3
19.24	13
19.25	10
19.26	7
19.27	4
19.28	5
19.29	7
19.3	7
19.31	8
19.32	7
19.33	5
19.34	9
19.35	5
19.36	5
19.37	5
19.38	7
19.39	5
19.4	6
19.41	5
19.42	6
19.43	5
19.44	2
19.45	11
19.46	7
19.47	11
19.48	4
19.49	2
19.5	6
19.51	8
19.52	11
19.53	9
19.54	14
19.55	6
19.56	8
19.57	4
19.58	7
19.59	3
19.6	7
19.61	7
19.62	9
19.63	6
19.64	3
19.65	6
19.66	4
19.67	10
19.68	5
19.69	5
19.7	5
19.71	4
19.72	4
19.73	13
19.74	2
19.75	8
19.76	9
19.77	6
19.78	6
19.79	9
19.8	7
19.81	5
19.82	10
19.83	5
19.84	3
19.85	10
19.86	3
19.87	7
19.88	8
19.89	10
19.9	2
19.91	8
19.92	5
19.93	6
19.94	2
19.95	4
19.96	6
19.97	8
19.98	9
19.99	4
20	10
20.01	9
20.02	7
20.03	2
20.04	5
20.05	1
20.06	5
20.07	6
20.08	6
20.09	8
20.1	5
20.11	6
20.12	4
20.13	5
20.14	8
20.15	7
20.16	7
20.17	5
20.18	6
20.19	16
20.2	8
20.21	8
20.22	6
20.23	8
20.24	5
20.25	7
20.26	4
20.27	6
20.28	4
20.29	6
20.3	7
20.31	5
20.32	2
20.33	4
20.34	7
20.35	4
20.36	6
20.37	4
20.38	8
20.39	6
20.4	5
20.41	8
20.42	6
20.43	1
20.44	3
20.45	11
20.46	10
20.47	5
20.48	5
20.49	3
20.5	6
20.51	6
20.52	7
20.53	4
20.54	7
20.55	7
20.56	8
20.57	6
20.58	5
20.59	4
20.6	10
20.61	5
20.62	7
20.63	7
20.64	5
20.65	9
20.66	5
20.67	7
20.68	9
20.69	5
20.7	8
20.71	5
20.72	4
20.73	9
20.74	3
20.75	4
20.76	7
20.77	10
20.78	7
20.79	4
20.8	4
20.81	2
20.82	5
20.83	5
20.84	10
20.85	5
20.86	5
20.87	7
20.88	2
20.89	6
20.9	6
20.91	5
20.92	8
20.93	4
20.94	7
20.95	1
20.96	3
20.97	5
20.98	3
20.99	5
21	8
21.01	6
21.02	7
21.03	5
21.04	8
21.05	11
21.06	7
21.07	8
21.08	6
21.09	4
21.1	3
21.11	12
21.12	6
21.13	11
21.14	7
21.15	8
21.16	8
21.17	9
21.18	8
21.19	7
21.2	7
21.21	4
21.22	5
21.23	7
21.24	8
21.25	5
21.26	5
21.27	9
21.28	8
21.29	4
21.3	7
21.31	6
21.32	6
21.33	8
21.34	4
21.35	6
21.36	6
21.37	7
21.38	5
21.39	4
21.4	10
21.41	11
21.42	9
21.43	7
21.44	6
21.45	9
21.46	6
21.47	9
21.48	8
21.49	4
21.5	8
21.51	7
21.52	2
21.53	8
21.54	7
21.55	8
21.56	4
21.57	5
21.58	9
21.59	11
21.6	11
21.61	6
21.62	8
21.63	7
21.64	5
21.65	5
21.66	6
21.67	9
21.68	9
21.69	5
21.7	6
21.71	7
21.72	7
21.73	5
21.74	11
21.75	4
21.76	2
21.77	6
21.78	10
21.79	8
21.8	9
21.81	11
21.82	10
21.83	8
21.84	9
21.85	4
21.86	5
21.87	9
21.88	8
21.89	2
21.9	6
21.91	4
21.92	4
21.93	10
21.94	9
21.95	5
21.96	8
21.97	3
21.98	9
21.99	9
22	7
22.01	11
22.02	8
22.03	6
22.04	9
22.05	7
22.06	10
22.07	7
22.08	7
22.09	8
22.1	5
22.11	7
22.12	11
22.13	8
22.14	9
22.15	11
22.16	10
22.17	9
22.18	12
22.19	9
22.2	9
22.21	11
22.22	14
22.23	11
22.24	7
22.25	6
22.26	11
22.27	10
22.28	13
22.29	6
22.3	13
22.31	13
22.32	10
22.33	11
22.34	11
22.35	11
22.36	16
22.37	9
22.38	14
22.39	10
22.4	12
22.41	14
22.42	11
22.43	14
22.44	11
22.45	9
22.46	14
22.47	8
22.48	18
22.49	15
22.5	10
22.51	10
22.52	18
22.53	18
22.54	17
22.55	18
22.56	19
22.57	17
22.58	27
22.59	26
22.6	22
22.61	29
22.62	18
22.63	34
22.64	35
22.65	48
22.66	51
22.67	41
22.68	79
22.69	84
22.7	143
22.71	196
22.72	627
22.73	2338
22.74	8832
22.75	27762
22.76	60982
22.77	88712
22.78	88206
22.79	66020
22.8	39522
22.81	19750
22.82	4683
22.83	638
22.84	251
22.85	159
22.86	128
22.87	99
22.88	97
22.89	71
22.9	71
22.91	56
22.92	47
22.93	39
22.94	32
22.95	35
22.96	36
22.97	30
22.98	45
22.99	24
23	31
23.01	35
23.02	24
23.03	30
23.04	19
23.05	24
23.06	21
23.07	13
23.08	18
23.09	15
23.1	19
23.11	15
23.12	14
23.13	19
23.14	20
23.15	16
23.16	9
23.17	23
23.18	8
23.19	6
23.2	18
23.21	12
23.22	12
23.23	11
23.24	14
23.25	10
23.26	13
23.27	20
23.28	13
23.29	15
23.3	7
23.31	13
23.32	9
23.33	9
23.34	7
23.35	11
23.36	6
23.37	11
23.38	9
23.39	11
23.4	13
23.41	9
23.42	15
23.43	6
23.44	10
23.45	9
23.46	8
23.47	7
23.48	7
23.49	7
23.5	8
23.51	7
23.52	9
23.53	6
23.54	7
23.55	10
23.56	7
23.57	7
23.58	9
23.59	9
23.6	9
23.61	9
23.62	7
23.63	8
23.64	6
23.65	7
23.66	10
23.67	11
23.68	10
23.69	5
23.7	10
23.71	5
23.72	8
23.73	9
23.74	7
23.75	10
23.76	2
23.77	10
23.78	6
23.79	5
23.8	13
23.81	7
23.82	9
23.83	7
23.84	6
23.85	10
23.86	5
23.87	6
23.88	11
23.89	6
23.9	9
23.91	3
23.92	4
23.93	9
23.94	10
23.95	5
23.96	3
23.97	7
23.98	8
23.99	6
24	3
24.01	7
24.02	10
24.03	5
24.04	7
24.05	10
24.06	7
24.07	10
24.08	6
24.09	3
24.1	5
24.11	4
24.12	8
24.13	3
24.14	4
24.15	8
24.16	4
24.17	6
24.18	7
24.19	11
24.2	8
24.21	8
24.22	7
24.23	9
24.24	10
24.25	4
24.26	5
24.27	11
24.28	7
24.29	6
24.3	9
24.31	10
24.32	2
24.33	8
24.34	8
24.35	10
24.36	7
24.37	7
24.38	6
24.39	5
24.4	5
24.41	7
24.42	4
24.43	9
24.44	7
24.45	8
24.46	12
24.47	6
24.48	11
24.49	7
24.5	4
24.51	7
24.52	2
24.53	8
24.54	8
24.55	4
24.56	8
24.57	4
24.58	5
24.59	7
24.6	7
24.61	9
24.62	7
24.63	8
24.64	3
24.65	7
24.66	9
24.67	10
24.68	7
24.69	7
24.7	5
24.71	6
24.72	2
24.73	3
24.74	5
24.75	3
24.76	7
24.77	4
24.78	9
24.79	7
24.8	5
24.81	9
24.82	1
24.83	8
24.84	7
24.85	4
24.86	8
24.87	5
24.88	10
24.89	9
24.9	2
24.91	10
24.92	5
24.93	12
24.94	9
24.95	5
24.96	6
24.97	10
24.98	7
24.99	10
25	1
25.01	4
25.02	2
25.03	2
25.04	10
25.05	7
25.06	4
25.07	4
25.08	4
25.09	6
25.1	8
25.11	5
25.12	7
25.13	6
25.14	6
25.15	5
25.16	11
25.17	9
25.18	5
25.19	4
25.2	8
25.21	9
25.22	4
25.23	5
25.24	2
25.25	7
25.26	5
25.27	5
25.28	5
25.29	7
25.3	4
25.31	5
25.32	5
25.33	4
25.34	5
25.35	9
25.36	9
25.37	7
25.38	12
25.39	7
25.4	10
25.41	5
25.42	6
25.43	9
25.44	6
25.45	4
25.46	7
25.47	4
25.48	6
25.49	7
25.5	7
25.51	8
25.52	2
25.53	8
25.54	2
25.55	3
25.56	6
25.57	5
25.58	5
25.59	5
25.6	6
25.61	3
25.62	10
25.63	8
25.64	5
25.65	4
25.66	8
25.67	4
25.68	5
25.69	4
25.7	10
25.71	5
25.72	7
25.73	6
25.74	2
25.75	4
25.76	5
25.77	8
25.78	8
25.79	7
25.8	7
25.81	8
25.82	6
25.83	6
25.84	5
25.85	6
25.86	8
25.87	3
25.88	8
25.89	6
25.9	2
25.91	10
25.92	6
25.93	6
25.94	3
25.95	3
25.96	10
25.97	6
25.98	6
25.99	11
26	10
26.01	5
26.02	6
26.03	6
26.04	6
26.05	4
26.06	6
26.07	6
26.08	5
26.09	11
26.1	5
26.11	0
26.12	6
26.13	6
26.14	1
26.15	8
26.16	6
26.17	7
26.18	6
26.19	3
26.2	6
26.21	3
26.22	5
26.23	3
26.24	9
26.25	4
26.26	7
26.27	4
26.28	10
26.29	9
26.3	4
26.31	8
26.32	4
26.33	6
26.34	3
26.35	4
26.36	7
26.37	7
26.38	5
26.39	2
26.4	10
26.41	13
26.42	3
26.43	4
26.44	3
26.45	4
26.46	6
26.47	4
26.48	11
26.49	6
26.5	4
26.51	3
26.52	6
26.53	3
26.54	2
26.55	7
26.56	5
26.57	4
26.58	5
26.59	3
26.6	5
26.61	9
26.62	6
26.63	4
26.64	6
26.65	5
26.66	6
26.67	9
26.68	4
26.69	6
26.7	5
26.71	4
26.72	5
26.73	6
26.74	11
26.75	5
26.76	7
26.77	4
26.78	2
26.79	7
26.8	8
26.81	3
26.82	3
26.83	1
26.84	4
26.85	6
26.86	6
26.87	10
26.88	12
26.89	5
26.9	6
26.91	6
26.92	6
26.93	11
26.94	9
26.95	3
26.96	5
26.97	4
26.98	7
26.99	4
27	5
27.01	6
27.02	2
27.03	2
27.04	4
27.05	3
27.06	11
27.07	2
27.08	7
27.09	2
27.1	11
27.11	2
27.12	7
27.13	8
27.14	7
27.15	10
27.16	6
27.17	6
27.18	2
27.19	6
27.2	6
27.21	11
27.22	5
27.23	6
27.24	5
27.25	9
27.26	6
27.27	4
27.28	6
27.29	4
27.3	4
27.31	7
27.32	4
27.33	3
27.34	4
27.35	7
27.36	7
27.37	0
27.38	5
27.39	5
27.4	5
27.41	4
27.42	7
27.43	10
27.44	5
27.45	5
27.46	3
27.47	8
27.48	4
27.49	6
27.5	5
27.51	5
27.52	4
27.53	6
27.54	3
27.55	4
27.56	3
27.57	8
27.58	7
27.59	5
27.6	5
27.61	4
27.62	4
27.63	8
27.64	7
27.65	6
27.66	2
27.67	10
27.68	6
27.69	2
27.7	9
27.71	5
27.72	2
27.73	8
27.74	6
27.75	4
27.76	6
27.77	9
27.78	9
27.79	4
27.8	6
27.81	5
27.82	6
27.83	2
27.84	9
27.85	6
27.86	2
27.87	4
27.88	3
27.89	2
27.9	4
27.91	7
27.92	11
27.93	1
27.94	6
27.95	3
27.96	5
27.97	2
27.98	8
27.99	3
28	4
28.01	3
28.02	9
28.03	3
28.04	3
28.05	3
28.06	7
28.07	5
28.08	5
28.09	10
28.1	10
28.11	4
28.12	4
28.13	11
28.14	4
28.15	2
28.16	5
28.17	7
28.18	6
28.19	4
28.2	0
28.21	7
28.22	6
28.23	4
28.24	6
28.25	5
28.26	5
28.27	6
28.28	2
28.29	2
28.3	4
28.31	2
28.32	3
28.33	7
28.34	5
28.35	8
28.36	4
28.37	5
28.38	3
28.39	5
28.4	6
28.41	5
28.42	9
28.43	3
28.44	10
28.45	7
28.46	7
28.47	4
28.48	6
28.49	3
28.5	5
28.51	3
28.52	5
28.53	6
28.54	5
28.55	5
28.56	12
28.57	4
28.58	5
28.59	6
28.6	9
28.61	9
28.62	6
28.63	11
28.64	1
28.65	9
28.66	3
28.67	2
28.68	4
28.69	7
28.7	8
28.71	4
28.72	7
28.73	6
28.74	5
28.75	6
28.76	4
28.77	1
28.78	8
28.79	6
28.8	7
28.81	4
28.82	2
28.83	5
28.84	6
28.85	9
28.86	2
28.87	2
28.88	5
28.89	7
28.9	5
28.91	3
28.92	7
28.93	9
28.94	3
28.95	5
28.96	11
28.97	6
28.98	8
28.99	6
29	4
29.01	5
29.02	6
29.03	5
29.04	8
29.05	6
29.06	7
29.07	5
29.08	4
29.09	4
29.1	7
29.11	5
29.12	4
29.13	5
29.14	7
29.15	3
29.16	5
29.17	3
29.18	5
29.19	5
29.2	4
29.21	2
29.22	8
29.23	4
29.24	6
29.25	3
29.26	4
29.27	1
29.28	7
29.29	5
29.3	3
29.31	6
29.32	5
29.33	5
29.34	4
29.35	5
29.36	3
29.37	6
29.38	4
29.39	5
29.4	9
29.41	5
29.42	6
29.43	7
29.44	5
29.45	4
29.46	5
29.47	5
29.48	6
29.49	4
29.5	5
29.51	8
29.52	7
29.53	4
29.54	6
29.55	3
29.56	2
29.57	4
29.58	4
29.59	8
29.6	5
29.61	4
29.62	2
29.63	10
29.64	4
29.65	6
29.66	7
29.67	9
29.68	4
29.69	4
29.7	4
29.71	3
29.72	4
29.73	3
29.74	6
29.75	8
29.76	5
29.77	4
29.78	8
29.79	8
29.8	4
29.81	1
29.82	6
29.83	5
29.84	3
29.85	1
29.86	8
29.87	7
29.88	2
29.89	4
29.9	4
29.91	11
29.92	5
29.93	6
29.94	8
29.95	7
29.96	4
29.97	6
29.98	3
29.99	5
30	5
30.01	1
30.02	5
30.03	5
30.04	3
30.05	4
30.06	2
30.07	4
30.08	5
30.09	5
30.1	3
30.11	5
30.12	2
30.13	8
30.14	5
30.15	4
30.16	8
30.17	6
30.18	7
30.19	5
30.2	4
30.21	8
30.22	5
30.23	4
30.24	4
30.25	4
30.26	6
30.27	12
30.28	9
30.29	2
30.3	10
30.31	8
30.32	2
30.33	2
30.34	11
30.35	2
30.36	5
30.37	9
30.38	8
30.39	9
30.4	9
30.41	6
30.42	5
30.43	4
30.44	11
30.45	9
30.46	8
30.47	5
30.48	13
30.49	6
30.5	14
30.51	12
30.52	18
30.53	9
30.54	12
30.55	13
30.56	21
30.57	8
30.58	9
30.59	9
30.6	12
30.61	15
30.62	13
30.63	17
30.64	6
30.65	10
30.66	10
30.67	11
30.68	10
30.69	10
30.7	10
30.71	6
30.72	10
30.73	6
30.74	9
30.75	10
30.76	6
30.77	8
30.78	4
30.79	6
30.8	8
30.81	5
30.82	9
30.83	10
30.84	9
30.85	6
30.86	7
30.87	3
30.88	8
30.89	2
30.9	9
30.91	5
30.92	7
30.93	5
30.94	6
30.95	3
30.96	6
30.97	5
30.98	5
30.99	7
31	4
31.01	5
31.02	5
31.03	14
31.04	1
31.05	7
31.06	7
31.07	2
31.08	6
31.09	4
31.1	6
31.11	6
31.12	4
31.13	5
31.14	4
31.15	2
31.16	6
31.17	6
31.18	5
31.19	2
31.2	7
31.21	9
31.22	3
31.23	11
31.24	5
31.25	2
31.26	3
31.27	9
31.28	4
31.29	11
31.3	13
31.31	8
31.32	4
31.33	5
31.34	3
31.35	3
31.36	3
31.37	8
31.38	7
31.39	5
31.4	5
31.41	1
31.42	14
31.43	5
31.44	5
31.45	9
31.46	7
31.47	7
31.48	9
31.49	5
31.5	11
31.51	8
31.52	4
31.53	4
31.54	4
31.55	8
31.56	10
31.57	7
31.58	6
31.59	2
31.6	2
31.61	4
31.62	2
31.63	5
31.64	3
31.65	3
31.66	5
31.67	5
31.68	4
31.69	4
31.7	4
31.71	3
31.72	7
31.73	6
31.74	3
31.75	3
31.76	7
31.77	4
31.78	8
31.79	3
31.8	9
31.81	6
31.82	5
31.83	2
31.84	7
31.85	8
31.86	2
31.87	4
31.88	5
31.89	12
31.9	2
31.91	9
31.92	8
31.93	3
31.94	5
31.95	3
31.96	10
31.97	8
31.98	9
31.99	4
32	3
32.01	5
32.02	4
32.03	4
32.04	7
32.05	6
32.06	4
32.07	8
32.08	8
32.09	8
32.1	5
32.11	9
32.12	7
32.13	5
32.14	8
32.15	2
32.16	4
32.17	5
32.18	4
32.19	5
32.2	9
32.21	6
32.22	4
32.23	5
32.24	3
32.25	6
32.26	1
32.27	4
32.28	7
32.29	8
32.3	2
32.31	5
32.32	3
32.33	9
32.34	2
32.35	5
32.36	5
32.37	2
32.38	5
32.39	6
32.4	11
32.41	8
32.42	6
32.43	4
32.44	7
32.45	1
32.46	13
32.47	3
32.48	5
32.49	6
32.5	6
32.51	9
32.52	2
32.53	3
32.54	6
32.55	2
32.56	1
32.57	6
32.58	5
32.59	6
32.6	4
32.61	3
32.62	6
32.63	5
32.64	4
32.65	6
32.66	8
32.67	7
32.68	5
32.69	4
32.7	4
32.71	5
32.72	10
32.73	6
32.74	7
32.75	9
32.76	3
32.77	7
32.78	6
32.79	3
32.8	8
32.81	5
32.82	1
32.83	6
32.84	7
32.85	6
32.86	3
32.87	4
32.88	5
32.89	9
32.9	6
32.91	4
32.92	3
32.93	13
32.94	5
32.95	6
32.96	6
32.97	5
32.98	5
32.99	6
33	9
33.01	2
33.02	3
33.03	2
33.04	4
33.05	3
33.06	6
33.07	13
33.08	7
33.09	7
33.1	8
33.11	5
33.12	6
33.13	6
33.14	8
33.15	5
33.16	11
33.17	8
33.18	4
33.19	1
33.2	8
33.21	3
33.22	2
33.23	7
33.24	5
33.25	5
33.26	9
33.27	7
33.28	6
33.29	9
33.3	10
33.31	3
33.32	5
33.33	11
33.34	7
33.35	8
33.36	8
33.37	4
33.38	5
33.39	9
33.4	5
33.41	6
33.42	7
33.43	6
33.44	5
33.45	7
33.46	3
33.47	9
33.48	16
33.49	10
33.5	6
33.51	6
33.52	9
33.53	10
33.54	8
33.55	4
33.56	11
33.57	5
33.58	6
33.59	3
33.6	4
33.61	3
33.62	5
33.63	6
33.64	7
33.65	10
33.66	5
33.67	8
33.68	11
33.69	3
33.7	7
33.71	3
33.72	7
33.73	10
33.74	6
33.75	8
33.76	9
33.77	11
33.78	7
33.79	8
33.8	9
33.81	8
33.82	5
33.83	7
33.84	6
33.85	4
33.86	5
33.87	8
33.88	9
33.89	9
33.9	8
33.91	11
33.92	6
33.93	7
33.94	8
33.95	10
33.96	12
33.97	6
33.98	12
33.99	7
34	4
34.01	10
34.02	11
34.03	9
34.04	8
34.05	10
34.06	7
34.07	8
34.08	8
34.09	13
34.1	5
34.11	7
34.12	5
34.13	9
34.14	4
34.15	3
34.16	11
34.17	7
34.18	4
34.19	8
34.2	5
34.21	8
34.22	11
34.23	7
34.24	7
34.25	2
34.26	5
34.27	6
34.28	7
34.29	9
34.3	7
34.31	2
34.32	5
34.33	7
34.34	12
34.35	3
34.36	4
34.37	8
34.38	8
34.39	6
34.4	2
34.41	12
34.42	8
34.43	6
34.44	6
34.45	4
34.46	3
34.47	8
34.48	10
34.49	5
34.5	2
34.51	6
34.52	6
34.53	6
34.54	9
34.55	10
34.56	6
34.57	5
34.58	4
34.59	11
34.6	8
34.61	10
34.62	3
34.63	8
34.64	9
34.65	4
34.66	7
34.67	8
34.68	0
34.69	2
34.7	11
34.71	4
34.72	5
34.73	4
34.74	5
34.75	3
34.76	5
34.77	7
34.78	7
34.79	5
34.8	10
34.81	9
34.82	4
34.83	3
34.84	5
34.85	5
34.86	8
34.87	3
34.88	6
34.89	7
34.9	2
34.91	5
34.92	6
34.93	5
34.94	7
34.95	2
34.96	3
34.97	4
34.98	5
34.99	6
35	3
35.01	2
35.02	8
35.03	6
35.04	8
35.05	9
35.06	6
35.07	6
35.08	5
35.09	6
35.1	1
35.11	3
35.12	6
35.13	6
35.14	6
35.15	3
35.16	4
35.17	4
35.18	5
35.19	2
35.2	7
35.21	9
35.22	4
35.23	4
35.24	5
35.25	8
35.26	4
35.27	3
35.28	9
35.29	3
35.3	13
35.31	8
35.32	9
35.33	12
35.34	3
35.35	4
35.36	10
35.37	3
35.38	6
35.39	10
35.4	4
35.41	4
35.42	2
35.43	1
35.44	7
35.45	4
35.46	9
35.47	7
35.48	4
35.49	5
35.5	5
35.51	3
35.52	3
35.53	4
35.54	7
35.55	5
35.56	7
35.57	3
35.58	5
35.59	3
35.6	9
35.61	5
35.62	5
35.63	6
35.64	5
35.65	7
35.66	3
35.67	7
35.68	3
35.69	2
35.7	4
35.71	3
35.72	4
35.73	7
35.74	4
35.75	8
35.76	12
35.77	3
35.78	8
35.79	5
35.8	7
35.81	7
35.82	13
35.83	2
35.84	6
35.85	4
35.86	8
35.87	1
35.88	7
35.89	6
35.9	3
35.91	10
35.92	6
35.93	2
35.94	2
35.95	2
35.96	4
35.97	5
35.98	6
35.99	5
36	9
36.01	4
36.02	7
36.03	9
36.04	4
36.05	3
36.06	11
36.07	5
36.08	2
36.09	8
36.1	3
36.11	3
36.12	5
36.13	0
36.14	7
36.15	5
36.16	6
36.17	8
36.18	5
36.19	6
36.2	4
36.21	5
36.22	5
36.23	4
36.24	4
36.25	3
36.26	5
36.27	6
36.28	6
36.29	6
36.3	4
36.31	6
36.32	2
36.33	8
36.34	5
36.35	5
36.36	2
36.37	5
36.38	7
36.39	2
36.4	4
36.41	3
36.42	8
36.43	5
36.44	3
36.45	4
36.46	4
36.47	5
36.48	8
36.49	5
36.5	7
36.51	5
36.52	11
36.53	2
36.54	7
36.55	6
36.56	6
36.57	6
36.58	2
36.59	5
36.6	5
36.61	8
36.62	8
36.63	5
36.64	3
36.65	4
36.66	3
36.67	9
36.68	7
36.69	5
36.7	10
36.71	10
36.72	3
36.73	2
36.74	6
36.75	6
36.76	2
36.77	6
36.78	4
36.79	5
36.8	5
36.81	5
36.82	3
36.83	8
36.84	4
36.85	2
36.86	1
36.87	6
36.88	5
36.89	5
36.9	8
36.91	5
36.92	6
36.93	4
36.94	3
36.95	5
36.96	11
36.97	6
36.98	2
36.99	4
37	0
37.01	6
37.02	8
37.03	6
37.04	4
37.05	4
37.06	1
37.07	11
37.08	8
37.09	4
37.1	5
37.11	12
37.12	5
37.13	5
37.14	4
37.15	8
37.16	6
37.17	6
37.18	6
37.19	4
37.2	8
37.21	7
37.22	7
37.23	10
37.24	7
37.25	8
37.26	10
37.27	3
37.28	8
37.29	6
37.3	5
37.31	7
37.32	5
37.33	1
37.34	6
37.35	6
37.36	5
37.37	4
37.38	5
37.39	8
37.4	5
37.41	6
37.42	6
37.43	4
37.44	2
37.45	8
37.46	3
37.47	8
37.48	9
37.49	12
37.5	2
37.51	6
37.52	6
37.53	7
37.54	3
37.55	9
37.56	9
37.57	2
37.58	8
37.59	8
37.6	4
37.61	4
37.62	12
37.63	4
37.64	2
37.65	4
37.66	7
37.67	11
37.68	7
37.69	6
37.7	1
37.71	6
37.72	8
37.73	6
37.74	5
37.75	8
37.76	4
37.77	5
37.78	9
37.79	5
37.8	6
37.81	6
37.82	4
37.83	8
37.84	8
37.85	11
37.86	5
37.87	8
37.88	14
37.89	8
37.9	10
37.91	8
37.92	9
37.93	2
37.94	8
37.95	5
37.96	9
37.97	11
37.98	12
37.99	7
38	10
38.01	5
38.02	9
38.03	9
38.04	8
38.05	14
38.06	9
38.07	10
38.08	11
38.09	11
38.1	11
38.11	11
38.12	8
38.13	15
38.14	13
38.15	7
38.16	10
38.17	10
38.18	18
38.19	15
38.2	8
38.21	8
38.22	18
38.23	17
38.24	23
38.25	19
38.26	15
38.27	29
38.28	28
38.29	24
38.3	23
38.31	37
38.32	22
38.33	31
38.34	55
38.35	38
38.36	47
38.37	52
38.38	64
38.39	73
38.4	86
38.41	98
38.42	98
38.43	108
38.44	104
38.45	100
38.46	104
38.47	109
38.48	110
38.49	106
38.5	100
38.51	86
38.52	83
38.53	99
38.54	75
38.55	90
38.56	66
38.57	66
38.58	62
38.59	57
38.6	50
38.61	49
38.62	39
38.63	43
38.64	36
38.65	45
38.66	37
38.67	37
38.68	33
38.69	30
38.7	21
38.71	23
38.72	24
38.73	24
38.74	15
38.75	19
38.76	22
38.77	22
38.78	17
38.79	15
38.8	14
38.81	20
38.82	17
38.83	20
38.84	22
38.85	16
38.86	10
38.87	15
38.88	15
38.89	17
38.9	5
38.91	9
38.92	12
38.93	9
38.94	7
38.95	10
38.96	8
38.97	7
38.98	11
38.99	6
39	12
39.01	9
39.02	5
39.03	12
39.04	9
39.05	8
39.06	8
39.07	6
39.08	5
39.09	5
39.1	5
39.11	12
39.12	12
39.13	5
39.14	8
39.15	6
39.16	8
39.17	10
39.18	10
39.19	6
39.2	10
39.21	6
39.22	3
39.23	8
39.24	3
39.25	6
39.26	4
39.27	8
39.28	8
39.29	5
39.3	7
39.31	2
39.32	6
39.33	7
39.34	6
39.35	9
39.36	5
39.37	5
39.38	7
39.39	6
39.4	11
39.41	6
39.42	5
39.43	10
39.44	3
39.45	7
39.46	3
39.47	7
39.48	9
39.49	8
39.5	5
39.51	4
39.52	5
39.53	6
39.54	5
39.55	7
39.56	3
39.57	1
39.58	6
39.59	3
39.6	7
39.61	2
39.62	6
39.63	4
39.64	8
39.65	9
39.66	7
39.67	3
39.68	4
39.69	6
39.7	9
39.71	4
39.72	4
39.73	5
39.74	9
39.75	7
39.76	6
39.77	5
39.78	5
39.79	5
39.8	5
39.81	6
39.82	4
39.83	8
39.84	6
39.85	5
39.86	5
39.87	5
39.88	5
39.89	6
39.9	6
39.91	8
39.92	4
39.93	6
39.94	3
39.95	3
39.96	6
39.97	8
39.98	11
39.99	6
40	5
40.01	3
40.02	7
40.03	5
40.04	5
40.05	5
40.06	5
40.07	5
40.08	5
40.09	7
40.1	4
40.11	9
40.12	5
40.13	4
40.14	5
40.15	6
40.16	10
40.17	3
40.18	6
40.19	7
40.2	10
40.21	6
40.22	3
40.23	4
40.24	6
40.25	4
40.26	3
40.27	6
40.28	3
40.29	9
40.3	5
40.31	2
40.32	7
40.33	8
40.34	11
40.35	3
40.36	5
40.37	8
40.38	5
40.39	6
40.4	7
40.41	5
40.42	7
40.43	11
40.44	10
40.45	8
40.46	3
40.47	4
40.48	1
40.49	8
40.5	5
40.51	6
40.52	7
40.53	7
40.54	4
40.55	4
40.56	7
40.57	6
40.58	3
40.59	5
40.6	4
40.61	11
40.62	7
40.63	4
40.64	8
40.65	2
40.66	6
40.67	3
40.68	5
40.69	4
40.7	7
40.71	5
40.72	6
40.73	4
40.74	3
40.75	3
40.76	9
40.77	6
40.78	3
40.79	5
40.8	3
40.81	5
40.82	7
40.83	5
40.84	4
40.85	6
40.86	3
40.87	6
40.88	8
40.89	8
40.9	4
40.91	9
40.92	11
40.93	3
40.94	5
40.95	6
40.96	8
40.97	7
40.98	4
40.99	5
41	6
41.01	4
41.02	2
41.03	2
41.04	3
41.05	7
41.06	6
41.07	3
41.08	3
41.09	9
41.1	4
41.11	6
41.12	8
41.13	4
41.14	5
41.15	5
41.16	2
41.17	7
41.18	4
41.19	5
41.2	6
41.21	4
41.22	4
41.23	5
41.24	5
41.25	3
41.26	6
41.27	5
41.28	2
41.29	6
41.3	10
41.31	3
41.32	8
41.33	5
41.34	5
41.35	3
41.36	4
41.37	8
41.38	2
41.39	5
41.4	5
41.41	6
41.42	5
41.43	4
41.44	3
41.45	6
41.46	9
41.47	8
41.48	5
41.49	7
41.5	4
41.51	6
41.52	8
41.53	7
41.54	4
41.55	4
41.56	5
41.57	1
41.58	5
41.59	6
41.6	2
41.61	7
41.62	5
41.63	3
41.64	5
41.65	3
41.66	6
41.67	3
41.68	5
41.69	1
41.7	5
41.71	13
41.72	3
41.73	3
41.74	7
41.75	4
41.76	5
41.77	6
41.78	5
41.79	6
41.8	3
41.81	5
41.82	1
41.83	3
41.84	9
41.85	5
41.86	5
41.87	1
41.88	8
41.89	8
41.9	6
41.91	5
41.92	6
41.93	4
41.94	4
41.95	4
41.96	9
41.97	10
41.98	5
41.99	4
42	3
42.01	4
42.02	7
42.03	7
42.04	6
42.05	5
42.06	2
42.07	6
42.08	2
42.09	9
42.1	4
42.11	5
42.12	10
42.13	7
42.14	4
42.15	1
42.16	3
42.17	3
42.18	4
42.19	11
42.2	8
42.21	2
42.22	4
42.23	4
42.24	2
42.25	6
42.26	7
42.27	4
42.28	2
42.29	5
42.3	2
42.31	3
42.32	5
42.33	12
42.34	7
42.35	8
42.36	6
42.37	5
42.38	7
42.39	3
42.4	7
42.41	4
42.42	3
42.43	3
42.44	7
42.45	3
42.46	2
42.47	2
42.48	4
42.49	2
42.5	0
42.51	5
42.52	3
42.53	1
42.54	5
42.55	4
42.56	5
42.57	9
42.58	5
42.59	3
42.6	8
42.61	4
42.62	5
42.63	7
42.64	5
42.65	4
42.66	4
42.67	3
42.68	6
42.69	7
42.7	4
42.71	4
42.72	9
42.73	5
42.74	3
42.75	6
42.76	5
42.77	6
42.78	7
42.79	2
42.8	2
42.81	4
42.82	3
42.83	10
42.84	2
42.85	3
42.86	4
42.87	4
42.88	6
42.89	5
42.9	8
42.91	2
42.92	4
42.93	9
42.94	6
42.95	5
42.96	6
42.97	3
42.98	7
42.99	6
43	4
43.01	0
43.02	15
43.03	3
43.04	3
43.05	5
43.06	8
43.07	5
43.08	6
43.09	4
43.1	4
43.11	2
43.12	7
43.13	8
43.14	6
43.15	6
43.16	7
43.17	4
43.18	6
43.19	3
43.2	4
43.21	7
43.22	7
43.23	4
43.24	6
43.25	6
43.26	3
43.27	6
43.28	2
43.29	4
43.3	6
43.31	9
43.32	6
43.33	4
43.34	5
43.35	7
43.36	8
43.37	1
43.38	9
43.39	2
43.4	3
43.41	2
43.42	4
43.43	5
43.44	3
43.45	4
43.46	8
43.47	4
43.48	8
43.49	4
43.5	6
43.51	7
43.52	2
43.53	7
43.54	6
43.55	5
43.56	5
43.57	2
43.58	2
43.59	7
43.6	3
43.61	4
43.62	3
43.63	3
43.64	5
43.65	3
43.66	9
43.67	9
43.68	9
43.69	3
43.7	6
43.71	5
43.72	6
43.73	6
43.74	5
43.75	6
43.76	4
43.77	8
43.78	5
43.79	2
43.8	4
43.81	9
43.82	3
43.83	9
43.84	8
43.85	7
43.86	3
43.87	7
43.88	6
43.89	2
43.9	9
43.91	1
43.92	8
43.93	4
43.94	7
43.95	3
43.96	7
43.97	6
43.98	4
43.99	7
44	7
44.01	8
44.02	7
44.03	4
44.04	6
44.05	5
44.06	8
44.07	4
44.08	3
44.09	9
44.1	6
44.11	8
44.12	4
44.13	4
44.14	8
44.15	6
44.16	4
44.17	4
44.18	4
44.19	5
44.2	5
44.21	3
44.22	5
44.23	6
44.24	4
44.25	5
44.26	4
44.27	7
44.28	7
44.29	6
44.3	8
44.31	5
44.32	6
44.33	5
44.34	6
44.35	1
44.36	6
44.37	5
44.38	4
44.39	4
44.4	5
44.41	6
44.42	5
44.43	9
44.44	4
44.45	5
44.46	8
44.47	9
44.48	6
44.49	9
44.5	7
44.51	5
44.52	6
44.53	4
44.54	2
44.55	8
44.56	6
44.57	7
44.58	4
44.59	10
44.6	8
44.61	3
44.62	8
44.63	3
44.64	7
44.65	8
44.66	5
44.67	4
44.68	6
44.69	6
44.7	4
44.71	8
44.72	12
44.73	7
44.74	8
44.75	4
44.76	8
44.77	13
44.78	7
44.79	13
44.8	11
44.81	20
44.82	11
44.83	10
44.84	17
44.85	5
44.86	8
44.87	8
44.88	9
44.89	10
44.9	4
44.91	5
44.92	6
44.93	5
44.94	6
44.95	6
44.96	4
44.97	10
44.98	2
44.99	6
45	8
45.01	8
45.02	10
45.03	2
45.04	12
45.05	8
45.06	12
45.07	9
45.08	10
45.09	7
45.1	8
45.11	8
45.12	11
45.13	14
45.14	15
45.15	5
45.16	6
45.17	11
45.18	8
45.19	9
45.2	12
45.21	12
45.22	8
45.23	7
45.24	5
45.25	8
45.26	9
45.27	11
45.28	16
45.29	8
45.3	7
45.31	6
45.32	13
45.33	10
45.34	7
45.35	14
45.36	5
45.37	10
45.38	10
45.39	12
45.4	13
45.41	14
45.42	13
45.43	11
45.44	14
45.45	12
45.46	13
45.47	14
45.48	9
45.49	18
45.5	14
45.51	12
45.52	12
45.53	13
45.54	10
45.55	6
45.56	14
45.57	17
45.58	12
45.59	14
45.6	15
45.61	11
45.62	17
45.63	13
45.64	19
45.65	18
45.66	9
45.67	16
45.68	18
45.69	19
45.7	17
45.71	11
45.72	13
45.73	8
45.74	17
45.75	11
45.76	6
45.77	13
45.78	15
45.79	15
45.8	12
45.81	13
45.82	16
45.83	15
45.84	10
45.85	12
45.86	14
45.87	10
45.88	7
45.89	19
45.9	13
45.91	14
45.92	11
45.93	8
45.94	15
45.95	19
45.96	14
45.97	14
45.98	10
45.99	16
46	24
46.01	12
46.02	24
46.03	17
46.04	27
46.05	23
46.06	22
46.07	15
46.08	26
46.09	26
46.1	23
46.11	17
46.12	25
46.13	28
46.14	36
46.15	26
46.16	30
46.17	47
46.18	44
46.19	37
46.2	48
46.21	54
46.22	52
46.23	59
46.24	60
46.25	65
46.26	66
46.27	81
46.28	76
46.29	106
46.3	120
46.31	151
46.32	178
46.33	177
46.34	230
46.35	323
46.36	418
46.37	557
46.38	698
46.39	974
46.4	1653
46.41	2882
46.42	6548
46.43	16188
46.44	43814
46.45	113761
46.46	257797
46.47	454288
46.48	593082
46.49	597121
46.5	472882
46.51	293908
46.52	131801
46.53	42892
46.54	13189
46.55	4849
46.56	2270
46.57	1400
46.58	931
46.59	681
46.6	601
46.61	400
46.62	356
46.63	321
46.64	261
46.65	217
46.66	182
46.67	170
46.68	165
46.69	129
46.7	127
46.71	126
46.72	81
46.73	113
46.74	88
46.75	75
46.76	63
46.77	79
46.78	48
46.79	52
46.8	52
46.81	42
46.82	42
46.83	55
46.84	32
46.85	40
46.86	33
46.87	37
46.88	32
46.89	44
46.9	23
46.91	20
46.92	24
46.93	25
46.94	25
46.95	27
46.96	24
46.97	13
46.98	21
46.99	23
47	19
47.01	17
47.02	14
47.03	15
47.04	17
47.05	16
47.06	17
47.07	13
47.08	7
47.09	8
47.1	14
47.11	9
47.12	15
47.13	15
47.14	10
47.15	12
47.16	8
47.17	10
47.18	9
47.19	8
47.2	6
47.21	2
47.22	8
47.23	8
47.24	11
47.25	8
47.26	4
47.27	10
47.28	10
47.29	5
47.3	7
47.31	8
47.32	9
47.33	8
47.34	9
47.35	9
47.36	8
47.37	5
47.38	9
47.39	7
47.4	9
47.41	7
47.42	4
47.43	11
47.44	7
47.45	7
47.46	10
47.47	3
47.48	6
47.49	4
47.5	7
47.51	7
47.52	6
47.53	7
47.54	5
47.55	6
47.56	7
47.57	8
47.58	7
47.59	7
47.6	5
47.61	3
47.62	8
47.63	7
47.64	8
47.65	11
47.66	5
47.67	3
47.68	4
47.69	6
47.7	6
47.71	8
47.72	4
47.73	7
47.74	3
47.75	6
47.76	4
47.77	8
47.78	9
47.79	8
47.8	6
47.81	9
47.82	4
47.83	3
47.84	7
47.85	7
47.86	5
47.87	5
47.88	5
47.89	3
47.9	5
47.91	11
47.92	8
47.93	4
47.94	5
47.95	8
47.96	5
47.97	8
47.98	3
47.99	6
48	3
48.01	6
48.02	5
48.03	3
48.04	3
48.05	6
48.06	9
48.07	6
48.08	7
48.09	7
48.1	5
48.11	4
48.12	2
48.13	1
48.14	4
48.15	3
48.16	6
48.17	6
48.18	7
48.19	4
48.2	2
48.21	5
48.22	3
48.23	4
48.24	4
48.25	3
48.26	6
48.27	7
48.28	4
48.29	5
48.3	4
48.31	9
48.32	7
48.33	8
48.34	5
48.35	3
48.36	9
48.37	9
48.38	11
48.39	6
48.4	4
48.41	7
48.42	5
48.43	4
48.44	7
48.45	5
48.46	5
48.47	1
48.48	5
48.49	7
48.5	8
48.51	3
48.52	6
48.53	9
48.54	6
48.55	5
48.56	3
48.57	5
48.58	4
48.59	5
48.6	5
48.61	5
48.62	6
48.63	6
48.64	3
48.65	5
48.66	2
48.67	3
48.68	4
48.69	7
48.7	5
48.71	6
48.72	7
48.73	5
48.74	5
48.75	5
48.76	4
48.77	4
48.78	4
48.79	6
48.8	6
48.81	3
48.82	6
48.83	5
48.84	8
48.85	6
48.86	1
48.87	2
48.88	8
48.89	7
48.9	5
48.91	11
48.92	1
48.93	8
48.94	7
48.95	5
48.96	7
48.97	6
48.98	3
48.99	6
49	6
49.01	2
49.02	4
49.03	7
49.04	8
49.05	3
49.06	7
49.07	6
49.08	6
49.09	4
49.1	6
49.11	5
49.12	4
49.13	3
49.14	2
49.15	5
49.16	6
49.17	6
49.18	6
49.19	10
49.2	1
49.21	3
49.22	3
49.23	3
49.24	2
49.25	5
49.26	2
49.27	6
49.28	6
49.29	8
49.3	8
49.31	5
49.32	6
49.33	8
49.34	8
49.35	6
49.36	5
49.37	5
49.38	3
49.39	3
49.4	4
49.41	6
49.42	8
49.43	5
49.44	4
49.45	3
49.46	6
49.47	5
49.48	7
49.49	7
49.5	4
49.51	2
49.52	6
49.53	4
49.54	5
49.55	6
49.56	4
49.57	4
49.58	7
49.59	2
49.6	2
49.61	5
49.62	6
49.63	5
49.64	5
49.65	1
49.66	5
49.67	3
49.68	4
49.69	4
49.7	1
49.71	6
49.72	10
49.73	3
49.74	1
49.75	11
49.76	4
49.77	5
49.78	6
49.79	5
49.8	7
49.81	6
49.82	6
49.83	10
49.84	3
49.85	4
49.86	9
49.87	5
49.88	4
49.89	5
49.9	4
49.91	2
49.92	5
49.93	1
49.94	7
49.95	7
49.96	6
49.97	3
49.98	7
49.99	3
50	4
50.01	10
50.02	4
50.03	10
50.04	4
50.05	3
50.06	5
50.07	4
50.08	5
50.09	8
50.1	4
50.11	7
50.12	7
50.13	3
50.14	6
50.15	4
50.16	4
50.17	7
50.18	5
50.19	4
50.2	3
50.21	3
50.22	4
50.23	4
50.24	1
50.25	3
50.26	6
50.27	7
50.28	7
50.29	4
50.3	9
50.31	4
50.32	3
50.33	4
50.34	7
50.35	3
50.36	3
50.37	4
50.38	7
50.39	7
50.4	4
50.41	4
50.42	6
50.43	4
50.44	3
50.45	8
50.46	4
50.47	5
50.48	5
50.49	4
50.5	6
50.51	4
50.52	2
50.53	2
50.54	3
50.55	4
50.56	11
50.57	4
50.58	6
50.59	6
50.6	4
50.61	8
50.62	3
50.63	7
50.64	3
50.65	3
50.66	3
50.67	9
50.68	9
50.69	1
50.7	2
50.71	3
50.72	3
50.73	8
50.74	4
50.75	4
50.76	5
50.77	4
50.78	7
50.79	5
50.8	6
50.81	6
50.82	2
50.83	1
50.84	5
50.85	3
50.86	5
50.87	4
50.88	4
50.89	4
50.9	4
50.91	5
50.92	5
50.93	5
50.94	9
50.95	1
50.96	2
50.97	5
50.98	4
50.99	5
51	9
51.01	6
51.02	6
51.03	3
51.04	3
51.05	2
51.06	2
51.07	5
51.08	1
51.09	5
51.1	4
51.11	5
51.12	5
51.13	14
51.14	2
51.15	4
51.16	6
51.17	7
51.18	10
51.19	5
51.2	4
51.21	7
51.22	6
51.23	7
51.24	10
51.25	7
51.26	4
51.27	6
51.28	7
51.29	4
51.3	10
51.31	2
51.32	7
51.33	1
51.34	10
51.35	5
51.36	2
51.37	4
51.38	5
51.39	6
51.4	3
51.41	3
51.42	6
51.43	3
51.44	8
51.45	6
51.46	4
51.47	2
51.48	3
51.49	7
51.5	5
51.51	6
51.52	7
51.53	10
51.54	6
51.55	7
51.56	4
51.57	4
51.58	5
51.59	3
51.6	5
51.61	8
51.62	8
51.63	8
51.64	6
51.65	2
51.66	4
51.67	8
51.68	5
51.69	9
51.7	1
51.71	4
51.72	4
51.73	8
51.74	8
51.75	2
51.76	8
51.77	1
51.78	5
51.79	5
51.8	9
51.81	8
51.82	7
51.83	5
51.84	3
51.85	2
51.86	3
51.87	2
51.88	9
51.89	4
51.9	7
51.91	7
51.92	1
51.93	5
51.94	3
51.95	3
51.96	4
51.97	3
51.98	1
51.99	7
52	10
52.01	6
52.02	5
52.03	5
52.04	8
52.05	1
52.06	8
52.07	4
52.08	6
52.09	7
52.1	6
52.11	6
52.12	5
52.13	4
52.14	4
52.15	6
52.16	3
52.17	3
52.18	2
52.19	6
52.2	3
52.21	5
52.22	5
52.23	6
52.24	4
52.25	7
52.26	5
52.27	5
52.28	8
52.29	5
52.3	4
52.31	6
52.32	5
52.33	4
52.34	4
52.35	4
52.36	6
52.37	6
52.38	9
52.39	2
52.4	8
52.41	6
52.42	9
52.43	3
52.44	3
52.45	3
52.46	5
52.47	4
52.48	3
52.49	3
52.5	7
52.51	7
52.52	8
52.53	5
52.54	8
52.55	5
52.56	5
52.57	8
52.58	3
52.59	5
52.6	2
52.61	11
52.62	4
52.63	8
52.64	8
52.65	1
52.66	4
52.67	2
52.68	6
52.69	9
52.7	3
52.71	7
52.72	5
52.73	3
52.74	9
52.75	5
52.76	9
52.77	9
52.78	3
52.79	5
52.8	5
52.81	2
52.82	9
52.83	10
52.84	2
52.85	6
52.86	10
52.87	5
52.88	5
52.89	6
52.9	7
52.91	4
52.92	4
52.93	4
52.94	4
52.95	3
52.96	6
52.97	8
52.98	6
52.99	5
53	4
53.01	10
53.02	4
53.03	5
53.04	6
53.05	4
53.06	2
53.07	5
53.08	4
53.09	7
53.1	6
53.11	3
53.12	1
53.13	6
53.14	3
53.15	4
53.16	6
53.17	6
53.18	2
53.19	3
53.2	3
53.21	6
53.22	5
53.23	5
53.24	3
53.25	5
53.26	7
53.27	5
53.28	5
53.29	4
53.3	3
53.31	5
53.32	5
53.33	9
53.34	3
53.35	3
53.36	4
53.37	4
53.38	9
53.39	5
53.4	5
53.41	3
53.42	5
53.43	3
53.44	4
53.45	11
53.46	4
53.47	4
53.48	5
53.49	8
53.5	8
53.51	7
53.52	10
53.53	3
53.54	9
53.55	5
53.56	4
53.57	6
53.58	8
53.59	10
53.6	4
53.61	3
53.62	3
53.63	6
53.64	3
53.65	4
53.66	10
53.67	7
53.68	4
53.69	1
53.7	5
53.71	4
53.72	5
53.73	4
53.74	1
53.75	5
53.76	5
53.77	6
53.78	4
53.79	3
53.8	9
53.81	6
53.82	4
53.83	4
53.84	6
53.85	7
53.86	6
53.87	9
53.88	6
53.89	9
53.9	7
53.91	8
53.92	3
53.93	5
53.94	4
53.95	10
53.96	4
53.97	4
53.98	5
53.99	6
54	6
54.01	3
54.02	5
54.03	2
54.04	9
54.05	2
54.06	6
54.07	8
54.08	7
54.09	3
54.1	5
54.11	3
54.12	7
54.13	5
54.14	8
54.15	8
54.16	5
54.17	7
54.18	6
54.19	5
54.2	6
54.21	3
54.22	6
54.23	6
54.24	9
54.25	3
54.26	10
54.27	8
54.28	1
54.29	7
54.3	5
54.31	4
54.32	6
54.33	5
54.34	7
54.35	5
54.36	7
54.37	4
54.38	5
54.39	2
54.4	6
54.41	3
54.42	5
54.43	4
54.44	6
54.45	7
54.46	6
54.47	7
54.48	11
54.49	5
54.5	5
54.51	8
54.52	2
54.53	4
54.54	7
54.55	7
54.56	6
54.57	9
54.58	7
54.59	5
54.6	4
54.61	14
54.62	7
54.63	6
54.64	10
54.65	11
54.66	10
54.67	5
54.68	4
54.69	8
54.7	14
54.71	7
54.72	13
54.73	5
54.74	8
54.75	11
54.76	9
54.77	14
54.78	10
54.79	19
54.8	12
54.81	13
54.82	12
54.83	21
54.84	11
54.85	11
54.86	26
54.87	18
54.88	13
54.89	18
54.9	22
54.91	16
54.92	12
54.93	15
54.94	18
54.95	14
54.96	15
54.97	17
54.98	19
54.99	11
55	19
55.01	14
55.02	16
55.03	17
55.04	14
55.05	12
55.06	11
55.07	9
55.08	10
55.09	6
55.1	10
55.11	5
55.12	7
55.13	7
55.14	6
55.15	6
55.16	8
55.17	11
55.18	6
55.19	7
55.2	7
55.21	9
55.22	7
55.23	8
55.24	6
55.25	7
55.26	3
55.27	4
55.28	7
55.29	4
55.3	6
55.31	5
55.32	9
55.33	4
55.34	7
55.35	3
55.36	12
55.37	3
55.38	6
55.39	8
55.4	4
55.41	3
55.42	5
55.43	7
55.44	3
55.45	1
55.46	6
55.47	4
55.48	4
55.49	6
55.5	6
55.51	5
55.52	6
55.53	7
55.54	6
55.55	6
55.56	0
55.57	3
55.58	10
55.59	6
55.6	3
55.61	2
55.62	8
55.63	1
55.64	3
55.65	9
55.66	4
55.67	7
55.68	3
55.69	4
55.7	6
55.71	6
55.72	5
55.73	4
55.74	9
55.75	4
55.76	6
55.77	3
55.78	9
55.79	4
55.8	3
55.81	5
55.82	9
55.83	4
55.84	5
55.85	2
55.86	4
55.87	5
55.88	4
55.89	1
55.9	9
55.91	5
55.92	5
55.93	5
55.94	7
55.95	11
55.96	7
55.97	6
55.98	4
55.99	5
56	6
56.01	2
56.02	2
56.03	3
56.04	3
56.05	4
56.06	8
56.07	5
56.08	4
56.09	4
56.1	5
56.11	2
56.12	4
56.13	8
56.14	8
56.15	3
56.16	4
56.17	4
56.18	8
56.19	5
56.2	3
56.21	5
56.22	6
56.23	6
56.24	5
56.25	8
56.26	5
56.27	5
56.28	4
56.29	8
56.3	3
56.31	4
56.32	3
56.33	3
56.34	5
56.35	4
56.36	2
56.37	5
56.38	4
56.39	3
56.4	2
56.41	3
56.42	8
56.43	4
56.44	4
56.45	1
56.46	6
56.47	4
56.48	5
56.49	7
56.5	5
56.51	7
56.52	8
56.53	6
56.54	5
56.55	7
56.56	9
56.57	0
56.58	5
56.59	2
56.6	4
56.61	3
56.62	2
56.63	4
56.64	2
56.65	7
56.66	6
56.67	3
56.68	5
56.69	3
56.7	3
56.71	3
56.72	4
56.73	11
56.74	9
56.75	3
56.76	4
56.77	6
56.78	1
56.79	4
56.8	0
56.81	7
56.82	8
56.83	4
56.84	9
56.85	7
56.86	7
56.87	2
56.88	0
56.89	0
56.9	4
56.91	6
56.92	4
56.93	4
56.94	5
56.95	6
56.96	6
56.97	9
56.98	0
56.99	8
57	4
57.01	5
57.02	4
57.03	6
57.04	4
57.05	7
57.06	9
57.07	7
57.08	3
57.09	4
57.1	3
57.11	8
57.12	8
57.13	3
57.14	6
57.15	4
57.16	3
57.17	10
57.18	6
57.19	4
57.2	3
57.21	7
57.22	5
57.23	4
57.24	2
57.25	10
57.26	4
57.27	4
57.28	1
57.29	2
57.3	7
57.31	3
57.32	10
57.33	1
57.34	4
57.35	7
57.36	5
57.37	3
57.38	7
57.39	1
57.4	6
57.41	2
57.42	2
57.43	5
57.44	8
57.45	8
57.46	4
57.47	6
57.48	9
57.49	5
57.5	3
57.51	3
57.52	7
57.53	7
57.54	2
57.55	4
57.56	3
57.57	4
57.58	6
57.59	3
57.6	2
57.61	3
57.62	5
57.63	4
57.64	9
57.65	7
57.66	1
57.67	3
57.68	6
57.69	2
57.7	5
57.71	6
57.72	9
57.73	2
57.74	7
57.75	7
57.76	2
57.77	9
57.78	7
57.79	1
57.8	3
57.81	4
57.82	8
57.83	6
57.84	4
57.85	2
57.86	3
57.87	6
57.88	6
57.89	1
57.9	5
57.91	4
57.92	3
57.93	5
57.94	2
57.95	7
57.96	10
57.97	3
57.98	6
57.99	10
58	5
58.01	5
58.02	5
58.03	6
58.04	8
58.05	3
58.06	4
58.07	3
58.08	4
58.09	1
58.1	7
58.11	7
58.12	3
58.13	8
58.14	4
58.15	5
58.16	4
58.17	6
58.18	5
58.19	1
58.2	6
58.21	5
58.22	5
58.23	3
58.24	5
58.25	4
58.26	8
58.27	2
58.28	5
58.29	4
58.3	4
58.31	2
58.32	4
58.33	7
58.34	1
58.35	6
58.36	2
58.37	6
58.38	9
58.39	3
58.4	8
58.41	7
58.42	8
58.43	6
58.44	4
58.45	4
58.46	5
58.47	4
58.48	4
58.49	5
58.5	4
58.51	5
58.52	3
58.53	8
58.54	3
58.55	11
58.56	3
58.57	7
58.58	8
58.59	4
58.6	5
58.61	5
58.62	7
58.63	8
58.64	1
58.65	4
58.66	6
58.67	8
58.68	2
58.69	7
58.7	13
58.71	7
58.72	3
58.73	2
58.74	9
58.75	9
58.76	8
58.77	4
58.78	8
58.79	3
58.8	3
58.81	6
58.82	5
58.83	5
58.84	3
58.85	5
58.86	6
58.87	6
58.88	5
58.89	5
58.9	3
58.91	3
58.92	8
58.93	5
58.94	3
58.95	4
58.96	2
58.97	5
58.98	3
58.99	0
59	3
59.01	7
59.02	8
59.03	3
59.04	9
59.05	5
59.06	2
59.07	6
59.08	6
59.09	4
59.1	7
59.11	8
59.12	6
59.13	1
59.14	4
59.15	6
59.16	7
59.17	4
59.18	2
59.19	4
59.2	5
59.21	5
59.22	7
59.23	3
59.24	11
59.25	4
59.26	8
59.27	7
59.28	3
59.29	4
59.3	8
59.31	3
59.32	4
59.33	4
59.34	4
59.35	7
59.36	4
59.37	3
59.38	8
59.39	6
59.4	7
59.41	7
59.42	11
59.43	8
59.44	5
59.45	4
59.46	5
59.47	2
59.48	4
59.49	4
59.5	6
59.51	3
59.52	4
59.53	4
59.54	10
59.55	6
59.56	3
59.57	16
59.58	2
59.59	7
59.6	3
59.61	6
59.62	3
59.63	10
59.64	5
59.65	2
59.66	10
59.67	4
59.68	4
59.69	9
59.7	0
59.71	2
59.72	6
59.73	2
59.74	7
59.75	5
59.76	6
59.77	2
59.78	5
59.79	4
59.8	3
59.81	3
59.82	5
59.83	4
59.84	7
59.85	3
59.86	6
59.87	2
59.88	9
59.89	4
59.9	7
59.91	7
59.92	1
59.93	5
59.94	2
59.95	2
59.96	5
59.97	7
59.98	4
59.99	3
60	7
60.01	13
60.02	10
60.03	6
60.04	4
60.05	4
60.06	2
60.07	3
60.08	1
60.09	6
60.1	7
60.11	7
60.12	5
60.13	5
60.14	10
60.15	6
60.16	6
60.17	8
60.18	3
60.19	4
60.2	4
60.21	4
60.22	6
60.23	3
60.24	3
60.25	9
60.26	5
60.27	5
60.28	8
60.29	8
60.3	3
60.31	6
60.32	2
60.33	3
60.34	2
60.35	6
60.36	6
60.37	4
60.38	4
60.39	1
60.4	2
60.41	3
60.42	4
60.43	7
60.44	3
60.45	4
60.46	11
60.47	2
60.48	4
60.49	6
60.5	3
60.51	8
60.52	6
60.53	2
60.54	1
60.55	5
60.56	7
60.57	1
60.58	9
60.59	8
60.6	7
60.61	2
60.62	3
60.63	5
60.64	7
60.65	8
60.66	5
60.67	4
60.68	4
60.69	4
60.7	3
60.71	3
60.72	3
60.73	6
60.74	6
60.75	3
60.76	6
60.77	7
60.78	3
60.79	7
60.8	1
60.81	4
60.82	1
60.83	6
60.84	7
60.85	2
60.86	7
60.87	5
60.88	10
60.89	4
60.9	6
60.91	0
60.92	4
60.93	9
60.94	9
60.95	2
60.96	6
60.97	2
60.98	7
60.99	6
61	5
61.01	4
61.02	3
61.03	7
61.04	7
61.05	5
61.06	3
61.07	1
61.08	6
61.09	3
61.1	4
61.11	5
61.12	4
61.13	4
61.14	6
61.15	7
61.16	3
61.17	7
61.18	4
61.19	4
61.2	6
61.21	6
61.22	8
61.23	3
61.24	8
61.25	5
61.26	6
61.27	7
61.28	7
61.29	5
61.3	5
61.31	6
61.32	3
61.33	4
61.34	8
61.35	1
61.36	3
61.37	2
61.38	5
61.39	6
61.4	3
61.41	4
61.42	4
61.43	6
61.44	6
61.45	4
61.46	9
61.47	6
61.48	2
61.49	6
61.5	5
61.51	6
61.52	5
61.53	5
61.54	3
61.55	5
61.56	7
61.57	4
61.58	5
61.59	6
61.6	1
61.61	8
61.62	4
61.63	9
61.64	1
61.65	5
61.66	4
61.67	9
61.68	8
61.69	6
61.7	6
61.71	7
61.72	5
61.73	3
61.74	4
61.75	5
61.76	4
61.77	8
61.78	6
61.79	4
61.8	6
61.81	3
61.82	5
61.83	1
61.84	5
61.85	6
61.86	4
61.87	4
61.88	3
61.89	6
61.9	2
61.91	5
61.92	3
61.93	8
61.94	5
61.95	1
61.96	1
61.97	7
61.98	2
61.99	6
62	5
62.01	8
62.02	6
62.03	6
62.04	3
62.05	4
62.06	7
62.07	5
62.08	3
62.09	2
62.1	6
62.11	9
62.12	3
62.13	1
62.14	13
62.15	3
62.16	4
62.17	6
62.18	7
62.19	4
62.2	2
62.21	4
62.22	5
62.23	6
62.24	2
62.25	1
62.26	3
62.27	4
62.28	4
62.29	7
62.3	3
62.31	7
62.32	7
62.33	6
62.34	4
62.35	4
62.36	4
62.37	6
62.38	8
62.39	5
62.4	3
62.41	4
62.42	5
62.43	8
62.44	2
62.45	4
62.46	5
62.47	6
62.48	4
62.49	5
62.5	4
62.51	5
62.52	3
62.53	6
62.54	7
62.55	4
62.56	3
62.57	4
62.58	9
62.59	5
62.6	4
62.61	6
62.62	3
62.63	2
62.64	4
62.65	6
62.66	8
62.67	2
62.68	9
62.69	7
62.7	4
62.71	8
62.72	7
62.73	5
62.74	2
62.75	6
62.76	4
62.77	4
62.78	9
62.79	2
62.8	4
62.81	10
62.82	5
62.83	4
62.84	3
62.85	5
62.86	6
62.87	9
62.88	7
62.89	5
62.9	5
62.91	5
62.92	6
62.93	3
62.94	4
62.95	3
62.96	7
62.97	4
62.98	8
62.99	4
63	2
63.01	5
63.02	4
63.03	4
63.04	8
63.05	4
63.06	5
63.07	3
63.08	6
63.09	5
63.1	0
63.11	5
63.12	3
63.13	9
63.14	6
63.15	5
63.16	6
63.17	6
63.18	5
63.19	1
63.2	11
63.21	4
63.22	6
63.23	4
63.24	6
63.25	1
63.26	4
63.27	4
63.28	2
63.29	6
63.3	6
63.31	3
63.32	6
63.33	3
63.34	2
63.35	7
63.36	5
63.37	2
63.38	1
63.39	4
63.4	4
63.41	1
63.42	3
63.43	9
63.44	8
63.45	4
63.46	5
63.47	3
63.48	5
63.49	4
63.5	2
63.51	10
63.52	3
63.53	4
63.54	5
63.55	5
63.56	4
63.57	4
63.58	6
63.59	6
63.6	14
63.61	2
63.62	6
63.63	3
63.64	3
63.65	4
63.66	5
63.67	4
63.68	0
63.69	4
63.7	3
63.71	2
63.72	4
63.73	6
63.74	9
63.75	6
63.76	4
63.77	6
63.78	4
63.79	3
63.8	9
63.81	6
63.82	4
63.83	7
63.84	5
63.85	2
63.86	4
63.87	5
63.88	3
63.89	6
63.9	5
63.91	3
63.92	6
63.93	9
63.94	8
63.95	7
63.96	5
63.97	4
63.98	4
63.99	5
64	4
64.01	5
64.02	9
64.03	4
64.04	2
64.05	5
64.06	10
64.07	5
64.08	3
64.09	3
64.1	8
64.11	7
64.12	2
64.13	4
64.14	9
64.15	4
64.16	4
64.17	4
64.18	4
64.19	7
64.2	2
64.21	1
64.22	1
64.23	10
64.24	5
64.25	1
64.26	6
64.27	3
64.28	8
64.29	5
64.3	1
64.31	5
64.32	4
64.33	5
64.34	3
64.35	8
64.36	3
64.37	4
64.38	4
64.39	6
64.4	4
64.41	2
64.42	10
64.43	4
64.44	5
64.45	4
64.46	4
64.47	4
64.48	5
64.49	4
64.5	2
64.51	12
64.52	6
64.53	2
64.54	5
64.55	5
64.56	6
64.57	1
64.58	5
64.59	6
64.6	11
64.61	8
64.62	2
64.63	3
64.64	4
64.65	4
64.66	4
64.67	3
64.68	6
64.69	7
64.7	6
64.71	4
64.72	4
64.73	7
64.74	8
64.75	5
64.76	5
64.77	7
64.78	5
64.79	4
64.8	3
64.81	4
64.82	5
64.83	3
64.84	6
64.85	4
64.86	5
64.87	10
64.88	7
64.89	4
64.9	3
64.91	9
64.92	9
64.93	7
64.94	5
64.95	8
64.96	2
64.97	4
64.98	6
64.99	4
65	5
65.01	9
65.02	7
65.03	5
65.04	3
65.05	3
65.06	8
65.07	4
65.08	2
65.09	6
65.1	5
65.11	6
65.12	3
65.13	3
65.14	3
65.15	4
65.16	3
65.17	4
65.18	2
65.19	5
65.2	7
65.21	8
65.22	4
65.23	3
65.24	6
65.25	5
65.26	5
65.27	12
65.28	6
65.29	6
65.3	2
65.31	3
65.32	5
65.33	2
65.34	7
65.35	4
65.36	7
65.37	7
65.38	10
65.39	2
65.4	6
65.41	10
65.42	3
65.43	8
65.44	5
65.45	1
65.46	1
65.47	3
65.48	4
65.49	3
65.5	5
65.51	5
65.52	6
65.53	6
65.54	7
65.55	3
65.56	9
65.57	6
65.58	8
65.59	1
65.6	3
65.61	4
65.62	4
65.63	1
65.64	2
65.65	5
65.66	2
65.67	8
65.68	5
65.69	3
65.7	7
65.71	6
65.72	4
65.73	1
65.74	5
65.75	7
65.76	5
65.77	3
65.78	6
65.79	4
65.8	2
65.81	8
65.82	8
65.83	5
65.84	3
65.85	4
65.86	3
65.87	5
65.88	3
65.89	8
65.9	4
65.91	1
65.92	5
65.93	11
65.94	5
65.95	4
65.96	1
65.97	4
65.98	3
65.99	4
66	2
66.01	2
66.02	3
66.03	5
66.04	5
66.05	4
66.06	4
66.07	4
66.08	6
66.09	3
66.1	4
66.11	3
66.12	8
66.13	3
66.14	6
66.15	4
66.16	6
66.17	2
66.18	8
66.19	1
66.2	7
66.21	3
66.22	4
66.23	5
66.24	1
66.25	6
66.26	4
66.27	4
66.28	2
66.29	5
66.3	8
66.31	6
66.32	9
66.33	7
66.34	4
66.35	5
66.36	6
66.37	2
66.38	3
66.39	8
66.4	6
66.41	8
66.42	2
66.43	7
66.44	6
66.45	6
66.46	5
66.47	7
66.48	3
66.49	2
66.5	6
66.51	2
66.52	3
66.53	4
66.54	4
66.55	1
66.56	0
66.57	8
66.58	5
66.59	9
66.6	9
66.61	7
66.62	2
66.63	5
66.64	5
66.65	7
66.66	3
66.67	7
66.68	8
66.69	5
66.7	4
66.71	2
66.72	3
66.73	6
66.74	6
66.75	5
66.76	5
66.77	12
66.78	7
66.79	4
66.8	6
66.81	3
66.82	3
66.83	9
66.84	5
66.85	4
66.86	7
66.87	3
66.88	4
66.89	6
66.9	3
66.91	8
66.92	6
66.93	5
66.94	1
66.95	6
66.96	7
66.97	7
66.98	4
66.99	3
67	2
67.01	5
67.02	3
67.03	4
67.04	4
67.05	2
67.06	4
67.07	6
67.08	11
67.09	7
67.1	3
67.11	5
67.12	2
67.13	4
67.14	8
67.15	2
67.16	6
67.17	9
67.18	3
67.19	3
67.2	7
67.21	3
67.22	4
67.23	4
67.24	5
67.25	8
67.26	5
67.27	3
67.28	9
67.29	5
67.3	5
67.31	5
67.32	6
67.33	8
67.34	5
67.35	8
67.36	8
67.37	8
67.38	5
67.39	7
67.4	1
67.41	7
67.42	3
67.43	3
67.44	7
67.45	4
67.46	7
67.47	8
67.48	7
67.49	4
67.5	5
67.51	8
67.52	5
67.53	5
67.54	7
67.55	3
67.56	5
67.57	5
67.58	4
67.59	11
67.6	4
67.61	6
67.62	3
67.63	2
67.64	5
67.65	4
67.66	5
67.67	4
67.68	4
67.69	7
67.7	6
67.71	5
67.72	4
67.73	8
67.74	5
67.75	6
67.76	8
67.77	3
67.78	7
67.79	3
67.8	6
67.81	7
67.82	4
67.83	2
67.84	5
67.85	7
67.86	6
67.87	3
67.88	5
67.89	2
67.9	6
67.91	7
67.92	5
67.93	7
67.94	6
67.95	5
67.96	3
67.97	6
67.98	8
67.99	5
68	7
68.01	10
68.02	3
68.03	2
68.04	4
68.05	7
68.06	6
68.07	2
68.08	9
68.09	6
68.1	4
68.11	7
68.12	7
68.13	5
68.14	3
68.15	3
68.16	4
68.17	6
68.18	6
68.19	6
68.2	4
68.21	4
68.22	5
68.23	3
68.24	11
68.25	6
68.26	9
68.27	3
68.28	2
68.29	7
68.3	6
68.31	1
68.32	2
68.33	4
68.34	5
68.35	1
68.36	5
68.37	6
68.38	3
68.39	5
68.4	3
68.41	7
68.42	3
68.43	3
68.44	3
68.45	7
68.46	1
68.47	5
68.48	4
68.49	3
68.5	8
68.51	3
68.52	0
68.53	3
68.54	4
68.55	10
68.56	7
68.57	1
68.58	3
68.59	6
68.6	2
68.61	5
68.62	11
68.63	4
68.64	9
68.65	2
68.66	4
68.67	4
68.68	3
68.69	7
68.7	4
68.71	7
68.72	1
68.73	2
68.74	10
68.75	5
68.76	3
68.77	3
68.78	5
68.79	1
68.8	3
68.81	2
68.82	9
68.83	8
68.84	5
68.85	1
68.86	7
68.87	6
68.88	6
68.89	3
68.9	6
68.91	10
68.92	5
68.93	7
68.94	4
68.95	6
68.96	2
68.97	5
68.98	2
68.99	9
69	3
69.01	6
69.02	4
69.03	7
69.04	4
69.05	3
69.06	6
69.07	2
69.08	5
69.09	6
69.1	8
69.11	6
69.12	4
69.13	7
69.14	3
69.15	4
69.16	12
69.17	10
69.18	3
69.19	4
69.2	4
69.21	4
69.22	5
69.23	5
69.24	2
69.25	3
69.26	3
69.27	7
69.28	4
69.29	5
69.3	5
69.31	4
69.32	5
69.33	14
69.34	3
69.35	8
69.36	6
69.37	6
69.38	9
69.39	4
69.4	5
69.41	2
69.42	5
69.43	3
69.44	5
69.45	6
69.46	9
69.47	3
69.48	5
69.49	5
69.5	2
69.51	6
69.52	4
69.53	6
69.54	5
69.55	1
69.56	6
69.57	6
69.58	4
69.59	3
69.6	6
69.61	6
69.62	7
69.63	2
69.64	9
69.65	4
69.66	5
69.67	5
69.68	3
69.69	6
69.7	5
69.71	4
69.72	5
69.73	7
69.74	2
69.75	5
69.76	7
69.77	2
69.78	4
69.79	9
69.8	4
69.81	1
69.82	3
69.83	6
69.84	5
69.85	5
69.86	10
69.87	4
69.88	5
69.89	4
69.9	6
69.91	4
69.92	5
69.93	1
69.94	8
69.95	5
69.96	3
69.97	5
69.98	5
69.99	4
70	2
70.01	9
70.02	2
70.03	7
70.04	7
70.05	7
70.06	5
70.07	9
70.08	4
70.09	5
70.1	6
70.11	5
70.12	4
70.13	4
70.14	3
70.15	5
70.16	7
70.17	3
70.18	4
70.19	2
70.2	4
70.21	4
70.22	8
70.23	3
70.24	4
70.25	8
70.26	0
70.27	5
70.28	3
70.29	3
70.3	6
70.31	4
70.32	1
70.33	3
70.34	7
70.35	8
70.36	2
70.37	2
70.38	3
70.39	5
70.4	7
70.41	6
70.42	8
70.43	2
70.44	4
70.45	4
70.46	8
70.47	2
70.48	6
70.49	10
70.5	7
70.51	5
70.52	5
70.53	8
70.54	4
70.55	5
70.56	5
70.57	13
70.58	6
70.59	1
70.6	3
70.61	8
70.62	7
70.63	4
70.64	4
70.65	2
70.66	7
70.67	5
70.68	4
70.69	3
70.7	2
70.71	8
70.72	5
70.73	6
70.74	3
70.75	4
70.76	2
70.77	4
70.78	4
70.79	6
70.8	5
70.81	5
70.82	5
70.83	6
70.84	2
70.85	6
70.86	8
70.87	3
70.88	4
70.89	5
70.9	4
70.91	6
70.92	3
70.93	3
70.94	6
70.95	6
70.96	3
70.97	4
70.98	3
70.99	9
71	4
71.01	5
71.02	8
71.03	4
71.04	3
71.05	2
71.06	4
71.07	4
71.08	6
71.09	5
71.1	5
71.11	5
71.12	3
71.13	6
71.14	4
71.15	3
71.16	5
71.17	6
71.18	4
71.19	7
71.2	6
71.21	8
71.22	2
71.23	3
71.24	4
71.25	4
71.26	5
71.27	9
71.28	6
71.29	5
71.3	7
71.31	2
71.32	6
71.33	9
71.34	9
71.35	7
71.36	3
71.37	5
71.38	4
71.39	6
71.4	7
71.41	4
71.42	6
71.43	7
71.44	6
71.45	8
71.46	2
71.47	5
71.48	6
71.49	7
71.5	5
71.51	6
71.52	4
71.53	2
71.54	2
71.55	4
71.56	5
71.57	5
71.58	9
71.59	8
71.6	3
71.61	6
71.62	5
71.63	14
71.64	1
71.65	3
71.66	5
71.67	2
71.68	8
71.69	7
71.7	5
71.71	6
71.72	5
71.73	4
71.74	4
71.75	4
71.76	8
71.77	3
71.78	5
71.79	6
71.8	3
71.81	7
71.82	6
71.83	7
71.84	9
71.85	9
71.86	7
71.87	6
71.88	7
71.89	7
71.9	4
71.91	2
71.92	8
71.93	4
71.94	6
71.95	2
71.96	4
71.97	5
71.98	3
71.99	7
72	3
72.01	3
72.02	6
72.03	5
72.04	5
72.05	7
72.06	5
72.07	3
72.08	7
72.09	1
72.1	2
72.11	10
72.12	9
72.13	11
72.14	4
72.15	6
72.16	5
72.17	5
72.18	8
72.19	4
72.2	7
72.21	4
72.22	4
72.23	6
72.24	8
72.25	7
72.26	4
72.27	3
72.28	3
72.29	3
72.3	4
72.31	7
72.32	9
72.33	8
72.34	9
72.35	8
72.36	8
72.37	10
72.38	10
72.39	8
72.4	10
72.41	9
72.42	3
72.43	4
72.44	17
72.45	9
72.46	20
72.47	24
72.48	42
72.49	55
72.5	93
72.51	154
72.52	266
72.53	490
72.54	949
72.55	1878
72.56	3138
72.57	4289
72.58	4033
72.59	2582
72.6	1438
72.61	597
72.62	247
72.63	129
72.64	63
72.65	45
72.66	16
72.67	15
72.68	10
72.69	19
72.7	9
72.71	14
72.72	16
72.73	12
72.74	7
72.75	11
72.76	9
72.77	11
72.78	7
72.79	7
72.8	13
72.81	7
72.82	3
72.83	11
72.84	6
72.85	7
72.86	6
72.87	6
72.88	6
72.89	12
72.9	9
72.91	8
72.92	4
72.93	6
72.94	9
72.95	3
72.96	5
72.97	3
72.98	4
72.99	5
73	8
73.01	6
73.02	9
73.03	8
73.04	5
73.05	8
73.06	3
73.07	5
73.08	3
73.09	1
73.1	5
73.11	4
73.12	13
73.13	4
73.14	6
73.15	8
73.16	7
73.17	2
73.18	3
73.19	3
73.2	6
73.21	8
73.22	4
73.23	4
73.24	1
73.25	7
73.26	4
73.27	3
73.28	7
73.29	3
73.3	6
73.31	3
73.32	8
73.33	3
73.34	4
73.35	4
73.36	3
73.37	3
73.38	3
73.39	3
73.4	7
73.41	4
73.42	5
73.43	5
73.44	2
73.45	4
73.46	9
73.47	0
73.48	6
73.49	8
73.5	7
73.51	6
73.52	4
73.53	9
73.54	6
73.55	3
73.56	7
73.57	2
73.58	5
73.59	4
73.6	8
73.61	6
73.62	6
73.63	3
73.64	1
73.65	1
73.66	4
73.67	6
73.68	3
73.69	5
73.7	7
73.71	4
73.72	7
73.73	7
73.74	2
73.75	3
73.76	4
73.77	3
73.78	1
73.79	4
73.8	6
73.81	3
73.82	1
73.83	4
73.84	3
73.85	8
73.86	4
73.87	0
73.88	2
73.89	6
73.9	6
73.91	3
73.92	5
73.93	4
73.94	5
73.95	6
73.96	1
73.97	5
73.98	6
73.99	1
74	1
74.01	5
74.02	8
74.03	7
74.04	5
74.05	6
74.06	10
74.07	6
74.08	6
74.09	3
74.1	4
74.11	4
74.12	4
74.13	1
74.14	7
74.15	5
74.16	5
74.17	7
74.18	7
74.19	5
74.2	9
74.21	2
74.22	3
74.23	6
74.24	9
74.25	6
74.26	7
74.27	3
74.28	5
74.29	5
74.3	3
74.31	6
74.32	7
74.33	4
74.34	4
74.35	12
74.36	3
74.37	1
74.38	4
74.39	5
74.4	3
74.41	8
74.42	3
74.43	3
74.44	7
74.45	7
74.46	7
74.47	9
74.48	3
74.49	2
74.5	7
74.51	5
74.52	2
74.53	4
74.54	5
74.55	4
74.56	5
74.57	5
74.58	6
74.59	5
74.6	5
74.61	6
74.62	11
74.63	3
74.64	7
74.65	4
74.66	6
74.67	4
74.68	6
74.69	10
74.7	4
74.71	1
74.72	7
74.73	8
74.74	5
74.75	3
74.76	7
74.77	5
74.78	6
74.79	5
74.8	2
74.81	8
74.82	3
74.83	8
74.84	2
74.85	3
74.86	7
74.87	4
74.88	10
74.89	5
74.9	3
74.91	5
74.92	3
74.93	8
74.94	6
74.95	3
74.96	5
74.97	2
74.98	9
74.99	5
75	4
75.01	2
75.02	7
75.03	3
75.04	5
75.05	3
75.06	2
75.07	2
75.08	2
75.09	6
75.1	9
75.11	8
75.12	6
75.13	3
75.14	5
75.15	8
75.16	2
75.17	5
75.18	5
75.19	4
75.2	7
75.21	2
75.22	7
75.23	8
75.24	6
75.25	9
75.26	4
75.27	4
75.28	3
75.29	7
75.3	4
75.31	6
75.32	4
75.33	5
75.34	5
75.35	5
75.36	10
75.37	5
75.38	8
75.39	3
75.4	5
75.41	6
75.42	6
75.43	4
75.44	5
75.45	5
75.46	5
75.47	5
75.48	6
75.49	3
75.5	6
75.51	5
75.52	7
75.53	10
75.54	1
75.55	2
75.56	4
75.57	9
75.58	8
75.59	4
75.6	4
75.61	2
75.62	3
75.63	1
75.64	1
75.65	6
75.66	6
75.67	6
75.68	11
75.69	4
75.7	2
75.71	8
75.72	6
75.73	4
75.74	3
75.75	5
75.76	4
75.77	9
75.78	9
75.79	4
75.8	7
75.81	4
75.82	6
75.83	13
75.84	5
75.85	8
75.86	5
75.87	3
75.88	4
75.89	4
75.9	6
75.91	4
75.92	5
75.93	6
75.94	5
75.95	4
75.96	6
75.97	7
75.98	8
75.99	6
76	1
76.01	4
76.02	2
76.03	5
76.04	6
76.05	8
76.06	3
76.07	4
76.08	6
76.09	2
76.1	4
76.11	5
76.12	2
76.13	10
76.14	4
76.15	4
76.16	6
76.17	7
76.18	6
76.19	8
76.2	4
76.21	4
76.22	6
76.23	1
76.24	10
76.25	5
76.26	5
76.27	3
76.28	5
76.29	10
76.3	8
76.31	6
76.32	6
76.33	1
76.34	6
76.35	5
76.36	4
76.37	2
76.38	4
76.39	3
76.4	4
76.41	3
76.42	4
76.43	4
76.44	3
76.45	5
76.46	10
76.47	6
76.48	5
76.49	6
76.5	3
76.51	2
76.52	3
76.53	8
76.54	8
76.55	3
76.56	4
76.57	2
76.58	7
76.59	2
76.6	5
76.61	10
76.62	3
76.63	5
76.64	6
76.65	6
76.66	6
76.67	8
76.68	5
76.69	7
76.7	6
76.71	6
76.72	7
76.73	3
76.74	3
76.75	4
76.76	5
76.77	7
76.78	7
76.79	3
76.8	7
76.81	4
76.82	1
76.83	2
76.84	4
76.85	7
76.86	4
76.87	5
76.88	2
76.89	3
76.9	4
76.91	6
76.92	4
76.93	7
76.94	8
76.95	7
76.96	5
76.97	3
76.98	3
76.99	5
77	7
77.01	6
77.02	4
77.03	7
77.04	3
77.05	9
77.06	4
77.07	7
77.08	3
77.09	3
77.1	6
77.11	8
77.12	10
77.13	2
77.14	4
77.15	8
77.16	7
77.17	3
77.18	1
77.19	5
77.2	1
77.21	1
77.22	4
77.23	4
77.24	7
77.25	6
77.26	3
77.27	4
77.28	7
77.29	5
77.3	5
77.31	7
77.32	4
77.33	8
77.34	4
77.35	7
77.36	2
77.37	3
77.38	3
77.39	3
77.4	5
77.41	6
77.42	4
77.43	8
77.44	2
77.45	5
77.46	5
77.47	7
77.48	7
77.49	5
77.5	5
77.51	2
77.52	3
77.53	6
77.54	3
77.55	9
77.56	1
77.57	4
77.58	12
77.59	7
77.6	2
77.61	6
77.62	1
77.63	7
77.64	5
77.65	10
77.66	7
77.67	5
77.68	6
77.69	1
77.7	4
77.71	7
77.72	3
77.73	1
77.74	6
77.75	7
77.76	8
77.77	2
77.78	4
77.79	6
77.8	8
77.81	5
77.82	3
77.83	6
77.84	3
77.85	1
77.86	4
77.87	11
77.88	10
77.89	3
77.9	6
77.91	2
77.92	2
77.93	1
77.94	10
77.95	3
77.96	1
77.97	7
77.98	7
77.99	7
78	3
78.01	2
78.02	3
78.03	2
78.04	5
78.05	2
78.06	4
78.07	6
78.08	4
78.09	5
78.1	6
78.11	6
78.12	8
78.13	4
78.14	4
78.15	7
78.16	3
78.17	1
78.18	5
78.19	6
78.2	1
78.21	2
78.22	2
78.23	5
78.24	5
78.25	5
78.26	0
78.27	3
78.28	10
78.29	6
78.3	4
78.31	6
78.32	2
78.33	6
78.34	5
78.35	3
78.36	8
78.37	2
78.38	7
78.39	2
78.4	6
78.41	5
78.42	6
78.43	2
78.44	4
78.45	3
78.46	5
78.47	3
78.48	4
78.49	7
78.5	6
78.51	5
78.52	5
78.53	5
78.54	3
78.55	5
78.56	7
78.57	1
78.58	6
78.59	7
78.6	8
78.61	5
78.62	4
78.63	5
78.64	4
78.65	7
78.66	6
78.67	5
78.68	4
78.69	2
78.7	7
78.71	3
78.72	9
78.73	4
78.74	5
78.75	5
78.76	8
78.77	3
78.78	4
78.79	3
78.8	2
78.81	7
78.82	3
78.83	6
78.84	4
78.85	6
78.86	4
78.87	3
78.88	8
78.89	4
78.9	3
78.91	5
78.92	6
78.93	5
78.94	5
78.95	1
78.96	7
78.97	2
78.98	6
78.99	4
79	2
79.01	7
79.02	2
79.03	10
79.04	3
79.05	5
79.06	5
79.07	4
79.08	5
79.09	0
79.1	3
79.11	6
79.12	7
79.13	9
79.14	3
79.15	3
79.16	3
79.17	4
79.18	8
79.19	7
79.2	2
79.21	5
79.22	4
79.23	5
79.24	1
79.25	3
79.26	7
79.27	4
79.28	3
79.29	7
79.3	3
79.31	5
79.32	8
79.33	3
79.34	8
79.35	2
79.36	9
79.37	9
79.38	5
79.39	3
79.4	5
79.41	8
79.42	8
79.43	4
79.44	3
79.45	5
79.46	7
79.47	4
79.48	2
79.49	5
79.5	5
79.51	3
79.52	7
79.53	8
79.54	5
79.55	4
79.56	4
79.57	4
79.58	8
79.59	4
79.6	1
79.61	5
79.62	7
79.63	4
79.64	5
79.65	5
79.66	3
79.67	6
79.68	6
79.69	5
79.7	8
79.71	6
79.72	7
79.73	6
79.74	9
79.75	10
79.76	3
79.77	6
79.78	3
79.79	5
79.8	3
79.81	0
79.82	5
79.83	5
79.84	2
79.85	9
79.86	2
79.87	4
79.88	3
79.89	8
79.9	2
79.91	2
79.92	4
79.93	4
79.94	4
79.95	5
79.96	6
79.97	5
79.98	3
79.99	3
80	2
80.01	4
80.02	6
80.03	5
80.04	3
80.05	2
80.06	6
80.07	6
80.08	5
80.09	5
80.1	4
80.11	4
80.12	6
80.13	4
80.14	8
80.15	3
80.16	3
80.17	8
80.18	0
80.19	6
80.2	2
80.21	3
80.22	8
80.23	4
80.24	7
80.25	6
80.26	6
80.27	5
80.28	5
80.29	5
80.3	7
80.31	9
80.32	6
80.33	5
80.34	4
80.35	5
80.36	8
80.37	4
80.38	4
80.39	5
80.4	7
80.41	4
80.42	3
80.43	5
80.44	7
80.45	2
80.46	4
80.47	9
80.48	2
80.49	3
80.5	1
80.51	4
80.52	11
80.53	4
80.54	4
80.55	2
80.56	3
80.57	6
80.58	1
80.59	3
80.6	5
80.61	7
80.62	4
80.63	2
80.64	3
80.65	4
80.66	4
80.67	7
80.68	3
80.69	4
80.7	3
80.71	3
80.72	3
80.73	4
80.74	1
80.75	3
80.76	2
80.77	7
80.78	7
80.79	8
80.8	2
80.81	6
80.82	3
80.83	1
80.84	3
80.85	8
80.86	5
80.87	5
80.88	7
80.89	4
80.9	4
80.91	1
80.92	6
80.93	2
80.94	4
80.95	3
80.96	1
80.97	5
80.98	5
80.99	4
81	7
81.01	3
81.02	3
81.03	0
81.04	4
81.05	4
81.06	7
81.07	5
81.08	5
81.09	4
81.1	7
81.11	2
81.12	2
81.13	1
81.14	2
81.15	4
81.16	4
81.17	6
81.18	0
81.19	1
81.2	3
81.21	7
81.22	8
81.23	5
81.24	7
81.25	7
81.26	4
81.27	5
81.28	6
81.29	3
81.3	3
81.31	5
81.32	6
81.33	8
81.34	4
81.35	4
81.36	1
81.37	4
81.38	4
81.39	8
81.4	4
81.41	4
81.42	6
81.43	6
81.44	4
81.45	3
81.46	3
81.47	6
81.48	4
81.49	6
81.5	6
81.51	5
81.52	4
81.53	3
81.54	2
81.55	6
81.56	5
81.57	6
81.58	3
81.59	7
81.6	6
81.61	6
81.62	3
81.63	2
81.64	6
81.65	6
81.66	4
81.67	6
81.68	8
81.69	4
81.7	5
81.71	6
81.72	5
81.73	4
81.74	5
81.75	8
81.76	4
81.77	1
81.78	6
81.79	1
81.8	4
81.81	7
81.82	8
81.83	4
81.84	3
81.85	4
81.86	7
81.87	5
81.88	8
81.89	6
81.9	1
81.91	6
81.92	5
81.93	3
81.94	4
81.95	4
81.96	5
81.97	3
81.98	4
81.99	3
82	6
82.01	6
82.02	4
82.03	10
82.04	2
82.05	8
82.06	7
82.07	4
82.08	5
82.09	1
82.1	8
82.11	8
82.12	4
82.13	3
82.14	3
82.15	10
82.16	3
82.17	7
82.18	4
82.19	7
82.2	7
82.21	6
82.22	4
82.23	7
82.24	3
82.25	7
82.26	3
82.27	5
82.28	5
82.29	3
82.3	4
82.31	6
82.32	5
82.33	7
82.34	3
82.35	7
82.36	9
82.37	6
82.38	7
82.39	7
82.4	10
82.41	9
82.42	2
82.43	3
82.44	4
82.45	7
82.46	8
82.47	6
82.48	5
82.49	8
82.5	4
82.51	5
82.52	5
82.53	4
82.54	5
82.55	3
82.56	5
82.57	3
82.58	10
82.59	7
82.6	3
82.61	6
82.62	8
82.63	7
82.64	4
82.65	6
82.66	4
82.67	2
82.68	10
82.69	4
82.7	7
82.71	5
82.72	6
82.73	7
82.74	11
82.75	6
82.76	11
82.77	4
82.78	7
82.79	3
82.8	4
82.81	2
82.82	6
82.83	7
82.84	7
82.85	6
82.86	8
82.87	4
82.88	4
82.89	5
82.9	4
82.91	5
82.92	1
82.93	14
82.94	0
82.95	2
82.96	3
82.97	3
82.98	4
82.99	5
83	3
83.01	5
83.02	8
83.03	3
83.04	3
83.05	5
83.06	8
83.07	5
83.08	10
83.09	3
83.1	4
83.11	5
83.12	5
83.13	5
83.14	4
83.15	3
83.16	4
83.17	3
83.18	5
83.19	5
83.2	1
83.21	6
83.22	4
83.23	1
83.24	7
83.25	3
83.26	6
83.27	5
83.28	8
83.29	3
83.3	6
83.31	3
83.32	4
83.33	3
83.34	3
83.35	7
83.36	8
83.37	5
83.38	8
83.39	2
83.4	6
83.41	2
83.42	5
83.43	2
83.44	4
83.45	0
83.46	3
83.47	6
83.48	4
83.49	4
83.5	8
83.51	7
83.52	4
83.53	7
83.54	4
83.55	5
83.56	6
83.57	1
83.58	5
83.59	4
83.6	3
83.61	4
83.62	7
83.63	4
83.64	3
83.65	6
83.66	7
83.67	5
83.68	6
83.69	4
83.7	4
83.71	4
83.72	6
83.73	1
83.74	2
83.75	7
83.76	4
83.77	6
83.78	3
83.79	6
83.8	8
83.81	8
83.82	7
83.83	3
83.84	9
83.85	4
83.86	5
83.87	8
83.88	4
83.89	3
83.9	7
83.91	4
83.92	7
83.93	4
83.94	5
83.95	5
83.96	5
83.97	5
83.98	7
83.99	2
84	6
84.01	8
84.02	7
84.03	5
84.04	5
84.05	2
84.06	5
84.07	4
84.08	2
84.09	4
84.1	3
84.11	3
84.12	8
84.13	4
84.14	3
84.15	2
84.16	6
84.17	3
84.18	10
84.19	5
84.2	3
84.21	6
84.22	4
84.23	3
84.24	3
84.25	4
84.26	5
84.27	4
84.28	6
84.29	4
84.3	6
84.31	4
84.32	8
84.33	7
84.34	7
84.35	7
84.36	3
84.37	4
84.38	5
84.39	6
84.4	4
84.41	8
84.42	10
84.43	4
84.44	7
84.45	2
84.46	6
84.47	1
84.48	5
84.49	0
84.5	5
84.51	5
84.52	9
84.53	3
84.54	5
84.55	4
84.56	3
84.57	7
84.58	9
84.59	9
84.6	4
84.61	4
84.62	5
84.63	5
84.64	9
84.65	6
84.66	2
84.67	8
84.68	5
84.69	7
84.7	5
84.71	5
84.72	7
84.73	3
84.74	1
84.75	5
84.76	5
84.77	3
84.78	0
84.79	0
84.8	8
84.81	3
84.82	5
84.83	5
84.84	9
84.85	0
84.86	4
84.87	9
84.88	5
84.89	4
84.9	11
84.91	4
84.92	5
84.93	4
84.94	5
84.95	2
84.96	2
84.97	3
84.98	5
84.99	9
85	5
85.01	6
85.02	6
85.03	6
85.04	4
85.05	8
85.06	7
85.07	6
85.08	4
85.09	7
85.1	5
85.11	4
85.12	7
85.13	6
85.14	5
85.15	7
85.16	8
85.17	5
85.18	4
85.19	3
85.2	3
85.21	4
85.22	6
85.23	3
85.24	8
85.25	7
85.26	7
85.27	2
85.28	4
85.29	7
85.3	7
85.31	7
85.32	8
85.33	4
85.34	6
85.35	5
85.36	5
85.37	8
85.38	7
85.39	7
85.4	0
85.41	4
85.42	5
85.43	5
85.44	1
85.45	5
85.46	6
85.47	1
85.48	5
85.49	2
85.5	4
85.51	3
85.52	6
85.53	4
85.54	1
85.55	5
85.56	5
85.57	7
85.58	5
85.59	7
85.6	9
85.61	3
85.62	4
85.63	4
85.64	5
85.65	6
85.66	6
85.67	7
85.68	6
85.69	4
85.7	6
85.71	7
85.72	6
85.73	7
85.74	2
85.75	4
85.76	8
85.77	6
85.78	6
85.79	7
85.8	7
85.81	5
85.82	6
85.83	3
85.84	5
85.85	0
85.86	4
85.87	5
85.88	2
85.89	1
85.9	4
85.91	9
85.92	7
85.93	4
85.94	4
85.95	1
85.96	3
85.97	5
85.98	3
85.99	7
86	7
86.01	4
86.02	3
86.03	6
86.04	13
86.05	8
86.06	4
86.07	6
86.08	3
86.09	2
86.1	6
86.11	3
86.12	7
86.13	8
86.14	9
86.15	0
86.16	3
86.17	5
86.18	10
86.19	9
86.2	10
86.21	4
86.22	5
86.23	2
86.24	2
86.25	3
86.26	5
86.27	2
86.28	6
86.29	5
86.3	7
86.31	3
86.32	1
86.33	4
86.34	4
86.35	9
86.36	3
86.37	4
86.38	5
86.39	5
86.4	4
86.41	5
86.42	7
86.43	7
86.44	2
86.45	5
86.46	3
86.47	6
86.48	7
86.49	5
86.5	2
86.51	4
86.52	1
86.53	3
86.54	2
86.55	2
86.56	5
86.57	5
86.58	7
86.59	8
86.6	6
86.61	1
86.62	5
86.63	4
86.64	2
86.65	5
86.66	5
86.67	2
86.68	4
86.69	5
86.7	1
86.71	3
86.72	8
86.73	8
86.74	3
86.75	3
86.76	3
86.77	4
86.78	3
86.79	4
86.8	3
86.81	8
86.82	4
86.83	3
86.84	9
86.85	4
86.86	6
86.87	3
86.88	6
86.89	3
86.9	3
86.91	4
86.92	6
86.93	5
86.94	5
86.95	3
86.96	2
86.97	3
86.98	4
86.99	7
87	7
87.01	3
87.02	10
87.03	3
87.04	4
87.05	3
87.06	10
87.07	7
87.08	3
87.09	5
87.1	5
87.11	11
87.12	4
87.13	4
87.14	6
87.15	2
87.16	5
87.17	7
87.18	6
87.19	2
87.2	3
87.21	5
87.22	5
87.23	4
87.24	7
87.25	3
87.26	1
87.27	8
87.28	2
87.29	8
87.3	5
87.31	4
87.32	7
87.33	6
87.34	1
87.35	2
87.36	7
87.37	6
87.38	3
87.39	4
87.4	6
87.41	8
87.42	7
87.43	2
87.44	8
87.45	3
87.46	8
87.47	4
87.48	5
87.49	4
87.5	3
87.51	8
87.52	4
87.53	8
87.54	5
87.55	5
87.56	5
87.57	4
87.58	5
87.59	3
87.6	4
87.61	2
87.62	4
87.63	7
87.64	3
87.65	6
87.66	6
87.67	3
87.68	6
87.69	4
87.7	3
87.71	5
87.72	6
87.73	5
87.74	7
87.75	7
87.76	2
87.77	8
87.78	2
87.79	6
87.8	6
87.81	4
87.82	3
87.83	3
87.84	4
87.85	7
87.86	5
87.87	3
87.88	2
87.89	8
87.9	5
87.91	6
87.92	9
87.93	3
87.94	1
87.95	3
87.96	4
87.97	2
87.98	3
87.99	5
88	2
88.01	7
88.02	7
88.03	6
88.04	6
88.05	3
88.06	6
88.07	8
88.08	5
88.09	2
88.1	7
88.11	3
88.12	2
88.13	8
88.14	1
88.15	6
88.16	6
88.17	3
88.18	4
88.19	3
88.2	8
88.21	3
88.22	4
88.23	7
88.24	3
88.25	8
88.26	5
88.27	5
88.28	5
88.29	5
88.3	7
88.31	7
88.32	5
88.33	7
88.34	6
88.35	5
88.36	6
88.37	2
88.38	3
88.39	2
88.4	6
88.41	6
88.42	4
88.43	3
88.44	5
88.45	3
88.46	5
88.47	4
88.48	6
88.49	4
88.5	3
88.51	4
88.52	5
88.53	3
88.54	1
88.55	5
88.56	2
88.57	6
88.58	4
88.59	8
88.6	8
88.61	6
88.62	2
88.63	3
88.64	4
88.65	4
88.66	3
88.67	2
88.68	6
88.69	7
88.7	6
88.71	3
88.72	10
88.73	5
88.74	7
88.75	4
88.76	4
88.77	4
88.78	4
88.79	3
88.8	5
88.81	4
88.82	10
88.83	6
88.84	3
88.85	7
88.86	4
88.87	4
88.88	2
88.89	4
88.9	9
88.91	4
88.92	9
88.93	4
88.94	6
88.95	2
88.96	2
88.97	7
88.98	7
88.99	7
89	4
89.01	4
89.02	4
89.03	5
89.04	5
89.05	2
89.06	9
89.07	3
89.08	4
89.09	5
89.1	3
89.11	5
89.12	5
89.13	5
89.14	1
89.15	5
89.16	4
89.17	5
89.18	8
89.19	3
89.2	7
89.21	4
89.22	5
89.23	3
89.24	6
89.25	7
89.26	3
89.27	4
89.28	3
89.29	10
89.3	1
89.31	3
89.32	6
89.33	4
89.34	4
89.35	6
89.36	5
89.37	4
89.38	3
89.39	6
89.4	2
89.41	4
89.42	4
89.43	5
89.44	9
89.45	3
89.46	5
89.47	6
89.48	4
89.49	4
89.5	8
89.51	0
89.52	3
89.53	5
89.54	3
89.55	5
89.56	5
89.57	1
89.58	6
89.59	10
89.6	3
89.61	3
89.62	5
89.63	4
89.64	6
89.65	7
89.66	9
89.67	3
89.68	3
89.69	4
89.7	1
89.71	1
89.72	6
89.73	1
89.74	5
89.75	8
89.76	4
89.77	7
89.78	6
89.79	8
89.8	7
89.81	3
89.82	6
89.83	7
89.84	6
89.85	3
89.86	3
89.87	7
89.88	6
89.89	2
89.9	3
89.91	5
89.92	3
89.93	4
89.94	6
89.95	4
89.96	3
89.97	3
89.98	3
89.99	5
90	3
90.01	9
90.02	10
90.03	5
90.04	6
90.05	7
90.06	6
90.07	3
90.08	4
90.09	6
90.1	6
90.11	8
90.12	7
90.13	5
90.14	6
90.15	6
90.16	3
90.17	2
90.18	6
90.19	3
90.2	9
90.21	5
90.22	5
90.23	5
90.24	3
90.25	5
90.26	8
90.27	4
90.28	6
90.29	6
90.3	4
90.31	1
90.32	8
90.33	5
90.34	6
90.35	9
90.36	3
90.37	4
90.38	3
90.39	5
90.4	3
90.41	8
90.42	6
90.43	6
90.44	5
90.45	7
90.46	3
90.47	4
90.48	7
90.49	4
90.5	7
90.51	3
90.52	4
90.53	9
90.54	8
90.55	6
90.56	3
90.57	9
90.58	2
90.59	3
90.6	8
90.61	3
90.62	3
90.63	3
90.64	2
90.65	3
90.66	3
90.67	2
90.68	4
90.69	6
90.7	4
90.71	5
90.72	4
90.73	5
90.74	4
90.75	2
90.76	3
90.77	6
90.78	4
90.79	7
90.8	7
90.81	4
90.82	2
90.83	3
90.84	6
90.85	2
90.86	7
90.87	5
90.88	1
90.89	4
90.9	5
90.91	4
90.92	2
90.93	3
90.94	3
90.95	4
90.96	5
90.97	8
90.98	7
90.99	9
91	7
91.01	4
91.02	4
91.03	6
91.04	4
91.05	4
91.06	4
91.07	3
91.08	3
91.09	1
91.1	5
91.11	10
91.12	5
91.13	6
91.14	9
91.15	2
91.16	5
91.17	4
91.18	0
91.19	9
91.2	4
91.21	4
91.22	4
91.23	5
91.24	5
91.25	4
91.26	5
91.27	1
91.28	5
91.29	3
91.3	1
91.31	6
91.32	3
91.33	12
91.34	1
91.35	6
91.36	4
91.37	5
91.38	4
91.39	6
91.4	4
91.41	5
91.42	4
91.43	1
91.44	8
91.45	4
91.46	7
91.47	10
91.48	7
91.49	2
91.5	5
91.51	0
91.52	2
91.53	6
91.54	9
91.55	4
91.56	8
91.57	10
91.58	5
91.59	2
91.6	7
91.61	6
91.62	5
91.63	5
91.64	2
91.65	7
91.66	3
91.67	8
91.68	6
91.69	1
91.7	4
91.71	5
91.72	3
91.73	2
91.74	8
91.75	5
91.76	3
91.77	6
91.78	7
91.79	5
91.8	5
91.81	4
91.82	3
91.83	4
91.84	1
91.85	3
91.86	11
91.87	10
91.88	4
91.89	4
91.9	5
91.91	4
91.92	2
91.93	4
91.94	3
91.95	5
91.96	7
91.97	6
91.98	7
91.99	4
92	6
92.01	5
92.02	2
92.03	4
92.04	4
92.05	6
92.06	7
92.07	2
92.08	4
92.09	7
92.1	2
92.11	6
92.12	4
92.13	6
92.14	5
92.15	3
92.16	4
92.17	8
92.18	1
92.19	3
92.2	4
92.21	0
92.22	3
92.23	2
92.24	10
92.25	7
92.26	4
92.27	4
92.28	6
92.29	1
92.3	6
92.31	6
92.32	10
92.33	5
92.34	3
92.35	5
92.36	10
92.37	3
92.38	6
92.39	3
92.4	13
92.41	2
92.42	5
92.43	5
92.44	7
92.45	7
92.46	6
92.47	6
92.48	5
92.49	6
92.5	7
92.51	6
92.52	7
92.53	9
92.54	5
92.55	7
92.56	4
92.57	5
92.58	7
92.59	2
92.6	4
92.61	2
92.62	6
92.63	8
92.64	6
92.65	10
92.66	6
92.67	10
92.68	3
92.69	4
92.7	8
92.71	10
92.72	5
92.73	7
92.74	5
92.75	7
92.76	9
92.77	11
92.78	4
92.79	10
92.8	4
92.81	8
92.82	6
92.83	2
92.84	4
92.85	2
92.86	6
92.87	6
92.88	7
92.89	5
92.9	8
92.91	6
92.92	5
92.93	4
92.94	9
92.95	6
92.96	7
92.97	4
92.98	5
92.99	7
93	5
93.01	2
93.02	6
93.03	5
93.04	10
93.05	6
93.06	4
93.07	10
93.08	3
93.09	4
93.1	4
93.11	3
93.12	1
93.13	5
93.14	4
93.15	7
93.16	5
93.17	8
93.18	9
93.19	6
93.2	7
93.21	0
93.22	7
93.23	4
93.24	6
93.25	9
93.26	7
93.27	6
93.28	3
93.29	2
93.3	8
93.31	4
93.32	3
93.33	4
93.34	4
93.35	4
93.36	4
93.37	6
93.38	4
93.39	4
93.4	4
93.41	7
93.42	6
93.43	7
93.44	7
93.45	6
93.46	8
93.47	3
93.48	5
93.49	5
93.5	2
93.51	7
93.52	4
93.53	6
93.54	4
93.55	11
93.56	3
93.57	2
93.58	6
93.59	7
93.6	6
93.61	7
93.62	4
93.63	9
93.64	5
93.65	2
93.66	3
93.67	3
93.68	7
93.69	7
93.7	1
93.71	3
93.72	3
93.73	7
93.74	14
93.75	8
93.76	5
93.77	4
93.78	6
93.79	6
93.8	5
93.81	5
93.82	6
93.83	3
93.84	4
93.85	2
93.86	5
93.87	4
93.88	6
93.89	5
93.9	9
93.91	5
93.92	8
93.93	6
93.94	5
93.95	8
93.96	6
93.97	4
93.98	10
93.99	2
94	4
94.01	6
94.02	9
94.03	4
94.04	5
94.05	8
94.06	4
94.07	7
94.08	4
94.09	5
94.1	5
94.11	3
94.12	5
94.13	7
94.14	4
94.15	5
94.16	1
94.17	5
94.18	3
94.19	3
94.2	4
94.21	2
94.22	8
94.23	6
94.24	4
94.25	7
94.26	3
94.27	1
94.28	3
94.29	7
94.3	4
94.31	8
94.32	2
94.33	2
94.34	7
94.35	4
94.36	6
94.37	2
94.38	4
94.39	7
94.4	5
94.41	3
94.42	9
94.43	10
94.44	6
94.45	7
94.46	6
94.47	6
94.48	9
94.49	5
94.5	4
94.51	3
94.52	6
94.53	6
94.54	9
94.55	6
94.56	7
94.57	4
94.58	4
94.59	4
94.6	4
94.61	7
94.62	5
94.63	5
94.64	5
94.65	8
94.66	8
94.67	6
94.68	7
94.69	4
94.7	3
94.71	7
94.72	2
94.73	5
94.74	3
94.75	6
94.76	5
94.77	8
94.78	3
94.79	3
94.8	3
94.81	5
94.82	6
94.83	4
94.84	3
94.85	4
94.86	7
94.87	3
94.88	4
94.89	3
94.9	4
94.91	6
94.92	5
94.93	6
94.94	6
94.95	4
94.96	5
94.97	7
94.98	5
94.99	7
95	5
95.01	7
95.02	2
95.03	5
95.04	2
95.05	5
95.06	4
95.07	8
95.08	6
95.09	1
95.1	6
95.11	4
95.12	5
95.13	3
95.14	4
95.15	5
95.16	5
95.17	8
95.18	5
95.19	1
95.2	2
95.21	7
95.22	3
95.23	4
95.24	3
95.25	4
95.26	6
95.27	6
95.28	6
95.29	7
95.3	4
95.31	5
95.32	7
95.33	9
95.34	2
95.35	4
95.36	6
95.37	6
95.38	3
95.39	4
95.4	5
95.41	4
95.42	5
95.43	3
95.44	9
95.45	5
95.46	3
95.47	4
95.48	6
95.49	3
95.5	5
95.51	7
95.52	3
95.53	6
95.54	6
95.55	4
95.56	3
95.57	7
95.58	4
95.59	3
95.6	2
95.61	5
95.62	4
95.63	6
95.64	3
95.65	7
95.66	5
95.67	10
95.68	5
95.69	4
95.7	6
95.71	4
95.72	6
95.73	6
95.74	3
95.75	4
95.76	8
95.77	4
95.78	8
95.79	3
95.8	4
95.81	6
95.82	7
95.83	8
95.84	3
95.85	5
95.86	5
95.87	5
95.88	3
95.89	8
95.9	2
95.91	5
95.92	6
95.93	6
95.94	5
95.95	5
95.96	3
95.97	3
95.98	6
95.99	6
96	4
96.01	6
96.02	3
96.03	3
96.04	4
96.05	3
96.06	6
96.07	8
96.08	4
96.09	8
96.1	4
96.11	1
96.12	9
96.13	5
96.14	7
96.15	5
96.16	4
96.17	8
96.18	5
96.19	2
96.2	2
96.21	5
96.22	5
96.23	10
96.24	10
96.25	2
96.26	7
96.27	6
96.28	6
96.29	2
96.3	1
96.31	6
96.32	6
96.33	5
96.34	5
96.35	6
96.36	8
96.37	2
96.38	3
96.39	0
96.4	4
96.41	6
96.42	6
96.43	5
96.44	5
96.45	6
96.46	2
96.47	3
96.48	5
96.49	3
96.5	4
96.51	1
96.52	3
96.53	6
96.54	7
96.55	3
96.56	6
96.57	1
96.58	4
96.59	5
96.6	5
96.61	4
96.62	5
96.63	4
96.64	2
96.65	1
96.66	4
96.67	1
96.68	5
96.69	4
96.7	6
96.71	6
96.72	3
96.73	4
96.74	8
96.75	3
96.76	5
96.77	3
96.78	5
96.79	7
96.8	5
96.81	7
96.82	5
96.83	7
96.84	4
96.85	3
96.86	6
96.87	2
96.88	5
96.89	6
96.9	3
96.91	11
96.92	2
96.93	3
96.94	5
96.95	7
96.96	5
96.97	6
96.98	3
96.99	4
97	7
97.01	5
97.02	3
97.03	4
97.04	7
97.05	4
97.06	4
97.07	7
97.08	4
97.09	3
97.1	4
97.11	4
97.12	3
97.13	7
97.14	5
97.15	6
97.16	7
97.17	7
97.18	2
97.19	8
97.2	7
97.21	4
97.22	4
97.23	2
97.24	6
97.25	7
97.26	5
97.27	4
97.28	4
97.29	5
97.3	4
97.31	2
97.32	4
97.33	3
97.34	6
97.35	2
97.36	7
97.37	3
97.38	5
97.39	2
97.4	5
97.41	4
97.42	5
97.43	5
97.44	3
97.45	6
97.46	1
97.47	4
97.48	3
97.49	7
97.5	6
97.51	5
97.52	4
97.53	3
97.54	5
97.55	4
97.56	10
97.57	5
97.58	6
97.59	3
97.6	9
97.61	8
97.62	7
97.63	5
97.64	9
97.65	6
97.66	7
97.67	5
97.68	4
97.69	8
97.7	5
97.71	5
97.72	5
97.73	5
97.74	3
97.75	5
97.76	5
97.77	4
97.78	6
97.79	8
97.8	5
97.81	3
97.82	7
97.83	6
97.84	5
97.85	5
97.86	4
97.87	3
97.88	5
97.89	8
97.9	2
97.91	4
97.92	3
97.93	6
97.94	4
97.95	5
97.96	2
97.97	2
97.98	3
97.99	4
98	5
98.01	1
98.02	0
98.03	6
98.04	4
98.05	4
98.06	4
98.07	5
98.08	4
98.09	4
98.1	8
98.11	9
98.12	6
98.13	4
98.14	7
98.15	8
98.16	7
98.17	2
98.18	4
98.19	4
98.2	4
98.21	4
98.22	4
98.23	2
98.24	2
98.25	6
98.26	10
98.27	2
98.28	6
98.29	7
98.3	4
98.31	5
98.32	2
98.33	4
98.34	5
98.35	7
98.36	4
98.37	3
98.38	6
98.39	7
98.4	3
98.41	5
98.42	3
98.43	5
98.44	10
98.45	3
98.46	2
98.47	5
98.48	3
98.49	4
98.5	4
98.51	3
98.52	3
98.53	3
98.54	5
98.55	4
98.56	3
98.57	5
98.58	5
98.59	9
98.6	2
98.61	4
98.62	3
98.63	4
98.64	6
98.65	4
98.66	1
98.67	4
98.68	4
98.69	5
98.7	6
98.71	5
98.72	4
98.73	3
98.74	4
98.75	3
98.76	4
98.77	3
98.78	2
98.79	2
98.8	3
98.81	5
98.82	1
98.83	5
98.84	3
98.85	4
98.86	6
98.87	1
98.88	7
98.89	5
98.9	5
98.91	4
98.92	6
98.93	7
98.94	3
98.95	5
98.96	6
98.97	11
98.98	4
98.99	6
99	4
99.01	4
99.02	3
99.03	5
99.04	6
99.05	0
99.06	9
99.07	4
99.08	4
99.09	3
99.1	3
99.11	3
99.12	0
99.13	4
99.14	4
99.15	4
99.16	2
99.17	5
99.18	2
99.19	5
99.2	3
99.21	7
99.22	7
99.23	7
99.24	8
99.25	3
99.26	2
99.27	4
99.28	4
99.29	3
99.3	8
99.31	3
99.32	11
99.33	14
99.34	5
99.35	7
99.36	2
99.37	10
99.38	4
99.39	2
99.4	6
99.41	5
99.42	6
99.43	1
99.44	3
99.45	6
99.46	7
99.47	4
99.48	9
99.49	4
99.5	6
99.51	1
99.52	3
99.53	3
99.54	5
99.55	2
99.56	5
99.57	3
99.58	10
99.59	2
99.6	5
99.61	2
99.62	7
99.63	8
99.64	5
99.65	5
99.66	4
99.67	2
99.68	6
99.69	7
99.7	3
99.71	5
99.72	6
99.73	4
99.74	5
99.75	6
99.76	8
99.77	6
99.78	5
99.79	4
99.8	4
99.81	9
99.82	7
99.83	5
99.84	3
99.85	8
99.86	5
99.87	7
99.88	7
99.89	5
99.9	6
99.91	3
99.92	2
99.93	9
99.94	6
99.95	4
99.96	6
99.97	5
99.98	3
99.99	9
100	3
