0.1	495396
0.105	474478
0.11	456052
0.115	446563
0.12	437760
0.125	435888
0.13	426622
0.135	422825
0.14	424355
0.145	422005
0.15	427092
0.155	425019
0.16	427458
0.165	432456
0.17	434635
0.175	436805
0.18	442221
0.185	447197
0.19	449495
0.195	453359
0.2	457552
0.205	458357
0.21	462222
0.215	466832
0.22	472606
0.225	477157
0.23	481237
0.235	485407
0.24	482759
0.245	490980
0.25	496165
0.255	505094
0.26	505445
0.265	512256
0.27	517150
0.275	518821
0.28	531764
0.285	536083
0.29	538612
0.295	553711
0.3	555695
0.305	563998
0.31	569743
0.315	582738
0.32	589743
0.325	598396
0.33	608661
0.335	614831
0.34	622671
0.345	631966
0.35	641672
0.355	652616
0.36	660441
0.365	667506
0.37	675801
0.375	681277
0.38	695123
0.385	698301
0.39	707462
0.395	717809
0.4	730334
0.405	737578
0.41	743217
0.415	736205
0.42	723503
0.425	723138
0.43	734453
0.435	738541
0.44	737957
0.445	755915
0.45	769858
0.455	779056
0.46	802270
0.465	770588
0.47	800007
0.475	806869
0.48	807672
0.485	828769
0.49	818987
0.495	831543
0.5	818330
0.505	824170
0.51	848698
0.515	849720
0.52	837529
0.525	838989
0.53	851837
0.535	857093
0.54	850085
0.545	848406
0.55	855049
0.555	848625
0.56	856071
0.565	857604
0.57	841836
0.575	846508
0.58	835266
0.585	838624
0.59	838843
0.595	836507
0.6	810373
0.605	808840
0.61	792050
0.615	785626
0.62	786210
0.625	751389
0.63	714524
0.635	691456
0.64	672330
0.645	644225
0.65	599330
0.655	598948
0.66	567579
0.665	528862
0.67	484818
0.675	446220
0.68	404683
0.685	368024
0.69	329844
0.695	294021
0.7	259951
0.705	231551
0.71	204121
0.715	181621
0.72	160890
0.725	144135
0.73	129998
0.735	116145
0.74	104515
0.745	95018
0.75	87602.7969
0.755	78852.2031
0.76	73560
0.765	69292
0.77	63871
0.775	58861
0.78	55021
0.785	51686
0.79	47680
0.795	45255
0.8	41816
0.805	39522
0.81	36568
0.815	34097
0.82	31262
0.825	29154
0.83	27090
0.835	25195
0.84	23651
0.845	22351
0.85	21138
0.855	20042
0.86	19018
0.865	18092
0.87	16743
0.875	15639
0.88	14399
0.885	13315
0.89	12460
0.895	11396
0.9	10906
0.905	10409
0.91	9911
0.915	9597
0.92	9034
0.925	8777
0.93	8374
0.935	7972
0.94	7568
0.945	6931
0.95	6291
0.955	5892
0.96	5327
0.965	5020
0.97	4830
0.975	4665
0.98	4392
0.985	4328
0.99	4351
0.995	4213
1	4033
1.005	3815
1.01	3519
1.015	3274
1.02	2993
1.025	2715
1.03	2658
1.035	2358
1.04	2160
1.045	2157
1.05	1973
1.055	2058
1.06	2023
1.065	1973
1.07	2061
1.075	1900
1.08	1755
1.085	1858
1.09	1650
1.095	1505
1.1	1283
1.105	1268
1.11	1080
1.115	999
1.12	974
1.125	1013
1.13	970
1.135	934
1.14	1002
1.145	968
1.15	1008
1.155	966
1.16	885
1.165	888
1.17	840
1.175	699
1.18	633
1.185	620
1.19	542
1.195	520
1.2	493
1.205	494
1.21	482
1.215	509
1.22	479
1.225	515
1.23	500
1.235	542
1.24	497
1.245	498
1.25	457
1.255	383
1.26	371
1.265	379
1.27	307
1.275	338
1.28	326
1.285	255
1.29	316
1.295	266
1.3	310
1.305	344
1.31	332
1.315	325
1.32	320
1.325	290
1.33	285
1.335	265
1.34	280
1.345	242
1.35	234
1.355	211
1.36	200
1.365	195
1.37	190
1.375	197
1.38	217
1.385	207
1.39	209
1.395	197
1.4	194
1.405	207
1.41	216
1.415	174
1.42	216
1.425	186
1.43	191
1.435	170
1.44	161
1.445	160
1.45	150
1.455	176
1.46	152
1.465	156
1.47	147
1.475	165
1.48	166
1.485	167
1.49	157
1.495	171
1.5	137
1.505	131
1.51	145
1.515	150
1.52	142
1.525	143
1.53	173
1.535	129
1.54	141
1.545	133
1.55	120
1.555	123
1.56	126
1.565	141
1.57	141
1.575	137
1.58	131
1.585	107
1.59	120
1.595	117
1.6	102
1.605	106
1.61	113
1.615	113
1.62	117
1.625	115
1.63	123
1.635	123
1.64	106
1.645	109
1.65	119
1.655	118
1.66	120
1.665	105
1.67	94
1.675	119
1.68	122
1.685	113
1.69	100
1.695	97
1.7	110
1.705	91
1.71	100
1.715	98
1.72	96
1.725	86
1.73	106
1.735	100
1.74	114
1.745	114
1.75	92
1.755	96
1.76	87
1.765	99
1.77	104
1.775	85
1.78	75
1.785	109
1.79	80
1.795	81
1.8	106
1.805	89
1.81	80
1.815	94
1.82	111
1.825	70
1.83	83
1.835	99
1.84	68
1.845	99
1.85	87
1.855	98
1.86	88
1.865	92
1.87	75
1.875	92
1.88	89
1.885	82
1.89	90
1.895	86
1.9	95
1.905	84
1.91	94
1.915	69
1.92	79
1.925	63
1.93	80
1.935	94
1.94	69
1.945	67
1.95	85
1.955	70
1.96	87
1.965	98
1.97	63
1.975	73
1.98	63
1.985	67
1.99	85
1.995	69
2	63
2.005	83
2.01	62
2.015	62
2.02	81
2.025	70
2.03	71
2.035	69
2.04	80
2.045	65
2.05	71
2.055	61
2.06	83
2.065	71
2.07	58
2.075	65
2.08	56
2.085	70
2.09	75
2.095	74
2.1	76
2.105	51
2.11	65
2.115	58
2.12	53
2.125	54
2.13	69
2.135	75
2.14	72
2.145	53
2.15	53
2.155	75
2.16	58
2.165	50
2.17	69
2.175	52
2.18	58
2.185	53
2.19	54
2.195	67
2.2	62
2.205	70
2.21	59
2.215	69
2.22	44
2.225	68
2.23	54
2.235	48
2.24	47
2.245	62
2.25	59
2.255	75
2.26	63
2.265	56
2.27	62
2.275	68
2.28	58
2.285	51
2.29	56
2.295	53
2.3	57
2.305	49
2.31	66
2.315	59
2.32	54
2.325	53
2.33	61
2.335	52
2.34	53
2.345	51
2.35	53
2.355	59
2.36	46
2.365	49
2.37	57
2.375	49
2.38	66
2.385	50
2.39	48
2.395	44
2.4	54
2.405	61
2.41	47
2.415	50
2.42	56
2.425	46
2.43	51
2.435	48
2.44	48
2.445	48
2.45	56
2.455	54
2.46	52
2.465	53
2.47	48
2.475	64
2.48	53
2.485	47
2.49	40
2.495	40
2.5	43
2.505	52
2.51	43
2.515	36
2.52	44
2.525	49
2.53	29
2.535	64
2.54	49
2.545	49
2.55	43
2.555	41
2.56	38
2.565	47
2.57	36
2.575	39
2.58	43
2.585	53
2.59	39
2.595	48
2.6	39
2.605	48
2.61	50
2.615	40
2.62	43
2.625	40
2.63	32
2.635	38
2.64	46
2.645	30
2.65	41
2.655	37
2.66	37
2.665	42
2.67	38
2.675	40
2.68	48
2.685	63
2.69	41
2.695	54
2.7	34
2.705	47
2.71	41
2.715	39
2.72	43
2.725	41
2.73	36
2.735	50
2.74	45
2.745	36
2.75	45
2.755	36
2.76	53
2.765	38
2.77	42
2.775	49
2.78	42
2.785	35
2.79	34
2.795	33
2.8	41
2.805	31
2.81	40
2.815	52
2.82	41
2.825	34
2.83	24
2.835	42
2.84	46
2.845	34
2.85	40
2.855	36
2.86	44
2.865	26
2.87	33
2.875	34
2.88	29
2.885	32
2.89	32
2.895	40
2.9	34
2.905	36
2.91	28
2.915	49
2.92	59
2.925	44
2.93	36
2.935	22
2.94	34
2.945	46
2.95	25
2.955	46
2.96	38
2.965	45
2.97	40
2.975	42
2.98	46
2.985	49
2.99	39
2.995	40
3	27
3.005	31
3.01	23
3.015	30
3.02	32
3.025	45
3.03	38
3.035	37
3.04	31
3.045	27
3.05	39
3.055	35
3.06	36
3.065	24
3.07	29
3.075	28
3.08	32
3.085	33
3.09	37
3.095	41
3.1	39
3.105	34
3.11	35
3.115	34
3.12	28
3.125	31
3.13	25
3.135	33
3.14	30
3.145	37
3.15	33
3.155	29
3.16	33
3.165	31
3.17	26
3.175	41
3.18	26
3.185	32
3.19	40
3.195	29
3.2	29
3.205	30
3.21	32
3.215	37
3.22	31
3.225	33
3.23	33
3.235	20
3.24	32
3.245	22
3.25	26
3.255	37
3.26	35
3.265	35
3.27	35
3.275	35
3.28	27
3.285	31
3.29	42
3.295	32
3.3	37
3.305	36
3.31	34
3.315	32
3.32	31
3.325	35
3.33	33
3.335	33
3.34	40
3.345	28
3.35	27
3.355	29
3.36	29
3.365	38
3.37	24
3.375	32
3.38	21
3.385	31
3.39	32
3.395	37
3.4	25
3.405	28
3.41	33
3.415	38
3.42	30
3.425	27
3.43	23
3.435	30
3.44	34
3.445	37
3.45	35
3.455	38
3.46	37
3.465	38
3.47	32
3.475	34
3.48	38
3.485	28
3.49	34
3.495	27
3.5	30
3.505	28
3.51	26
3.515	29
3.52	30
3.525	31
3.53	29
3.535	28
3.54	27
3.545	29
3.55	27
3.555	35
3.56	32
3.565	44
3.57	27
3.575	37
3.58	35
3.585	37
3.59	39
3.595	37
3.6	27
3.605	26
3.61	25
3.615	29
3.62	24
3.625	28
3.63	21
3.635	33
3.64	23
3.645	23
3.65	23
3.655	28
3.66	35
3.665	27
3.67	29
3.675	32
3.68	31
3.685	32
3.69	24
3.695	28
3.7	32
3.705	22
3.71	30
3.715	33
3.72	29
3.725	27
3.73	24
3.735	29
3.74	22
3.745	26
3.75	25
3.755	43
3.76	31
3.765	28
3.77	33
3.775	25
3.78	25
3.785	27
3.79	25
3.795	32
3.8	21
3.805	28
3.81	28
3.815	26
3.82	25
3.825	28
3.83	34
3.835	28
3.84	21
3.845	23
3.85	23
3.855	29
3.86	30
3.865	19
3.87	28
3.875	35
3.88	27
3.885	30
3.89	26
3.895	25
3.9	27
3.905	22
3.91	18
3.915	31
3.92	29
3.925	34
3.93	36
3.935	21
3.94	23
3.945	31
3.95	27
3.955	25
3.96	14
3.965	26
3.97	23
3.975	20
3.98	20
3.985	24
3.99	30
3.995	32
4	29
4.005	26
4.01	23
4.015	21
4.02	27
4.025	31
4.03	26
4.035	19
4.04	24
4.045	28
4.05	30
4.055	37
4.06	16
4.065	31
4.07	29
4.075	19
4.08	21
4.085	28
4.09	28
4.095	29
4.1	28
4.105	26
4.11	20
4.115	32
4.12	31
4.125	30
4.13	25
4.135	20
4.14	25
4.145	23
4.15	20
4.155	18
4.16	20
4.165	21
4.17	21
4.175	27
4.18	22
4.185	26
4.19	27
4.195	33
4.2	17
4.205	34
4.21	22
4.215	24
4.22	20
4.225	21
4.23	34
4.235	24
4.24	27
4.245	30
4.25	31
4.255	33
4.26	20
4.265	20
4.27	28
4.275	35
4.28	20
4.285	25
4.29	27
4.295	22
4.3	18
4.305	15
4.31	22
4.315	19
4.32	29
4.325	30
4.33	22
4.335	22
4.34	19
4.345	24
4.35	21
4.355	27
4.36	19
4.365	27
4.37	26
4.375	22
4.38	22
4.385	22
4.39	34
4.395	26
4.4	22
4.405	22
4.41	25
4.415	24
4.42	27
4.425	32
4.43	29
4.435	24
4.44	32
4.445	21
4.45	15
4.455	25
4.46	22
4.465	30
4.47	20
4.475	22
4.48	21
4.485	29
4.49	24
4.495	28
4.5	37
4.505	16
4.51	22
4.515	18
4.52	29
4.525	25
4.53	31
4.535	32
4.54	16
4.545	25
4.55	30
4.555	28
4.56	28
4.565	33
4.57	29
4.575	22
4.58	21
4.585	28
4.59	37
4.595	26
4.6	25
4.605	37
4.61	29
4.615	19
4.62	21
4.625	26
4.63	15
4.635	23
4.64	27
4.645	21
4.65	26
4.655	26
4.66	22
4.665	25
4.67	28
4.675	24
4.68	25
4.685	24
4.69	24
4.695	24
4.7	29
4.705	25
4.71	25
4.715	29
4.72	26
4.725	21
4.73	19
4.735	25
4.74	24
4.745	27
4.75	22
4.755	11
4.76	19
4.765	24
4.77	19
4.775	32
4.78	25
4.785	34
4.79	25
4.795	24
4.8	23
4.805	23
4.81	29
4.815	31
4.82	26
4.825	28
4.83	20
4.835	19
4.84	25
4.845	24
4.85	24
4.855	19
4.86	18
4.865	18
4.87	25
4.875	38
4.88	19
4.885	17
4.89	23
4.895	31
4.9	19
4.905	23
4.91	26
4.915	29
4.92	15
4.925	22
4.93	25
4.935	28
4.94	25
4.945	23
4.95	27
4.955	23
4.96	23
4.965	27
4.97	29
4.975	24
4.98	22
4.985	25
4.99	19
4.995	27
5	21
5.005	24
5.01	32
5.015	31
5.02	30
5.025	33
5.03	30
5.035	21
5.04	34
5.045	30
5.05	26
5.055	31
5.06	28
5.065	28
5.07	30
5.075	30
5.08	32
5.085	31
5.09	20
5.095	27
5.1	26
5.105	25
5.11	36
5.115	33
5.12	33
5.125	26
5.13	27
5.135	27
5.14	32
5.145	32
5.15	37
5.155	28
5.16	22
5.165	34
5.17	31
5.175	30
5.18	29
5.185	38
5.19	29
5.195	27
5.2	25
5.205	28
5.21	24
5.215	24
5.22	32
5.225	18
5.23	42
5.235	31
5.24	22
5.245	18
5.25	21
5.255	37
5.26	28
5.265	32
5.27	32
5.275	31
5.28	29
5.285	21
5.29	29
5.295	27
5.3	29
5.305	25
5.31	21
5.315	40
5.32	28
5.325	27
5.33	22
5.335	21
5.34	23
5.345	36
5.35	30
5.355	27
5.36	31
5.365	36
5.37	24
5.375	27
5.38	25
5.385	30
5.39	32
5.395	34
5.4	32
5.405	21
5.41	24
5.415	22
5.42	38
5.425	25
5.43	31
5.435	31
5.44	30
5.445	37
5.45	31
5.455	35
5.46	32
5.465	42
5.47	31
5.475	33
5.48	19
5.485	27
5.49	27
5.495	30
5.5	40
5.505	33
5.51	29
5.515	31
5.52	25
5.525	29
5.53	25
5.535	24
5.54	37
5.545	26
5.55	28
5.555	25
5.56	38
5.565	32
5.57	30
5.575	44
5.58	25
5.585	36
5.59	28
5.595	27
5.6	31
5.605	29
5.61	30
5.615	39
5.62	33
5.625	30
5.63	28
5.635	27
5.64	21
5.645	27
5.65	32
5.655	39
5.66	36
5.665	36
5.67	30
5.675	42
5.68	32
5.685	36
5.69	37
5.695	35
5.7	25
5.705	45
5.71	31
5.715	36
5.72	31
5.725	40
5.73	29
5.735	32
5.74	42
5.745	26
5.75	32
5.755	35
5.76	30
5.765	33
5.77	20
5.775	36
5.78	48
5.785	27
5.79	29
5.795	25
5.8	36
5.805	31
5.81	37
5.815	41
5.82	27
5.825	40
5.83	24
5.835	37
5.84	31
5.845	34
5.85	35
5.855	41
5.86	34
5.865	37
5.87	29
5.875	34
5.88	35
5.885	31
5.89	35
5.895	33
5.9	30
5.905	41
5.91	41
5.915	38
5.92	34
5.925	42
5.93	32
5.935	26
5.94	29
5.945	38
5.95	50
5.955	35
5.96	26
5.965	43
5.97	44
5.975	38
5.98	28
5.985	29
5.99	35
5.995	37
6	41
6.005	34
6.01	41
6.015	44
6.02	41
6.025	42
6.03	37
6.035	40
6.04	35
6.045	36
6.05	40
6.055	34
6.06	48
6.065	41
6.07	29
6.075	41
6.08	43
6.085	47
6.09	37
6.095	40
6.1	57
6.105	43
6.11	41
6.115	44
6.12	38
6.125	40
6.13	42
6.135	39
6.14	47
6.145	36
6.15	38
6.155	41
6.16	35
6.165	50
6.17	35
6.175	53
6.18	35
6.185	42
6.19	49
6.195	50
6.2	43
6.205	37
6.21	45
6.215	42
6.22	53
6.225	48
6.23	42
6.235	44
6.24	51
6.245	50
6.25	49
6.255	48
6.26	35
6.265	46
6.27	38
6.275	52
6.28	46
6.285	41
6.29	47
6.295	53
6.3	37
6.305	50
6.31	28
6.315	64
6.32	50
6.325	48
6.33	57
6.335	41
6.34	43
6.345	51
6.35	47
6.355	38
6.36	51
6.365	47
6.37	53
6.375	41
6.38	40
6.385	48
6.39	37
6.395	49
6.4	36
6.405	56
6.41	58
6.415	54
6.42	51
6.425	56
6.43	53
6.435	52
6.44	54
6.445	46
6.45	45
6.455	38
6.46	47
6.465	49
6.47	54
6.475	49
6.48	54
6.485	39
6.49	39
6.495	44
6.5	49
6.505	69
6.51	53
6.515	43
6.52	45
6.525	46
6.53	42
6.535	54
6.54	57
6.545	59
6.55	45
6.555	50
6.56	43
6.565	44
6.57	38
6.575	44
6.58	47
6.585	51
6.59	57
6.595	57
6.6	69
6.605	73
6.61	55
6.615	60
6.62	49
6.625	66
6.63	51
6.635	46
6.64	57
6.645	44
6.65	48
6.655	49
6.66	52
6.665	45
6.67	56
6.675	68
6.68	49
6.685	59
6.69	61
6.695	62
6.7	70
6.705	68
6.71	72
6.715	61
6.72	70
6.725	64
6.73	54
6.735	54
6.74	59
6.745	45
6.75	52
6.755	56
6.76	66
6.765	49
6.77	46
6.775	61
6.78	64
6.785	58
6.79	71
6.795	59
6.8	58
6.805	65
6.81	67
6.815	64
6.82	76
6.825	76
6.83	59
6.835	70
6.84	44
6.845	54
6.85	42
6.855	47
6.86	46
6.865	53
6.87	66
6.875	68
6.88	53
6.885	58
6.89	66
6.895	83
6.9	90
6.905	82
6.91	93
6.915	76
6.92	72
6.925	74
6.93	62
6.935	70
6.94	73
6.945	84
6.95	67
6.955	61
6.96	49
6.965	49
6.97	63
6.975	89
6.98	57
6.985	97
6.99	75
6.995	83
7	93
7.005	103
7.01	84
7.015	92
7.02	95
7.025	90
7.03	96
7.035	91
7.04	73
7.045	64
7.05	73
7.055	71
7.06	57
7.065	70
7.07	65
7.075	92
7.08	81
7.085	87
7.09	96
7.095	99
7.1	101
7.105	97
7.11	95
7.115	91
7.12	119
7.125	109
7.13	127
7.135	107
7.14	93
7.145	95
7.15	84
7.155	82
7.16	65
7.165	76
7.17	88
7.175	93
7.18	92
7.185	114
7.19	95
7.195	111
7.2	126
7.205	152
7.21	143
7.215	148
7.22	150
7.225	141
7.23	155
7.235	144
7.24	111
7.245	119
7.25	104
7.255	93
7.26	80
7.265	71
7.27	90
7.275	93
7.28	104
7.285	125
7.29	144
7.295	149
7.3	158
7.305	194
7.31	207
7.315	187
7.32	177
7.325	194
7.33	188
7.335	162
7.34	161
7.345	156
7.35	171
7.355	129
7.36	121
7.365	124
7.37	108
7.375	125
7.38	165
7.385	179
7.39	214
7.395	221
7.4	252
7.405	286
7.41	277
7.415	342
7.42	388
7.425	358
7.43	373
7.435	341
7.44	339
7.445	337
7.45	262
7.455	234
7.46	236
7.465	259
7.47	255
7.475	283
7.48	362
7.485	464
7.49	556
7.495	734
7.5	867
7.505	1074
7.51	1306
7.515	1614
7.52	1807
7.525	2132
7.53	2299
7.535	2526
7.54	2821
7.545	2990
7.55	3104
7.555	3238
7.56	3268
7.565	3251
7.57	3273
7.575	3219
7.58	3112
7.585	2993
7.59	2799
7.595	2557
7.6	2364
7.605	2187
7.61	1955
7.615	1689
7.62	1462
7.625	1288
7.63	1027
7.635	903
7.64	683
7.645	626
7.65	444
7.655	390
7.66	271
7.665	219
7.67	184
7.675	142
7.68	94
7.685	86
7.69	75
7.695	67
7.7	92
7.705	68
7.71	62
7.715	66
7.72	47
7.725	56
7.73	55
7.735	51
7.74	51
7.745	40
7.75	39
7.755	58
7.76	32
7.765	30
7.77	28
7.775	23
7.78	23
7.785	28
7.79	33
7.795	19
7.8	20
7.805	24
7.81	24
7.815	25
7.82	23
7.825	19
7.83	28
7.835	22
7.84	31
7.845	17
7.85	22
7.855	23
7.86	22
7.865	21
7.87	19
7.875	14
7.88	19
7.885	9
7.89	17
7.895	17
7.9	17
7.905	20
7.91	20
7.915	9
7.92	22
7.925	20
7.93	32
7.935	7
7.94	13
7.945	13
7.95	13
7.955	20
7.96	17
7.965	12
7.97	15
7.975	11
7.98	7
7.985	17
7.99	9
7.995	13
8	9
8.005	3
8.01	5
8.015	12
8.02	17
8.025	17
8.03	18
8.035	10
8.04	11
8.045	15
8.05	19
8.055	15
8.06	16
8.065	8
8.07	9
8.075	16
8.08	19
8.085	10
8.09	19
8.095	16
8.1	17
8.105	12
8.11	9
8.115	14
8.12	13
8.125	13
8.13	14
8.135	12
8.14	13
8.145	15
8.15	17
8.155	17
8.16	10
8.165	9
8.17	14
8.175	16
8.18	12
8.185	3
8.19	12
8.195	12
8.2	13
8.205	8
8.21	14
8.215	8
8.22	15
8.225	11
8.23	13
8.235	6
8.24	15
8.245	13
8.25	14
8.255	11
8.26	11
8.265	8
8.27	9
8.275	10
8.28	11
8.285	8
8.29	12
8.295	13
8.3	8
8.305	12
8.31	14
8.315	15
8.32	17
8.325	10
8.33	12
8.335	12
8.34	7
8.345	8
8.35	9
8.355	8
8.36	6
8.365	11
8.37	5
8.375	9
8.38	7
8.385	5
8.39	3
8.395	8
8.4	12
8.405	8
8.41	10
8.415	11
8.42	12
8.425	10
8.43	10
8.435	8
8.44	9
8.445	16
8.45	12
8.455	13
8.46	12
8.465	7
8.47	10
8.475	10
8.48	9
8.485	5
8.49	13
8.495	14
8.5	5
8.505	9
8.51	6
8.515	10
8.52	7
8.525	6
8.53	18
8.535	13
8.54	11
8.545	15
8.55	9
8.555	9
8.56	12
8.565	11
8.57	5
8.575	10
8.58	9
8.585	12
8.59	8
8.595	6
8.6	13
8.605	13
8.61	9
8.615	11
8.62	13
8.625	8
8.63	6
8.635	4
8.64	9
8.645	6
8.65	9
8.655	11
8.66	13
8.665	10
8.67	9
8.675	10
8.68	20
8.685	7
8.69	6
8.695	6
8.7	7
8.705	3
8.71	9
8.715	10
8.72	6
8.725	8
8.73	4
8.735	16
8.74	2
8.745	13
8.75	9
8.755	5
8.76	4
8.765	9
8.77	7
8.775	5
8.78	12
8.785	8
8.79	12
8.795	7
8.8	7
8.805	12
8.81	6
8.815	5
8.82	7
8.825	7
8.83	8
8.835	7
8.84	14
8.845	5
8.85	10
8.855	3
8.86	7
8.865	5
8.87	9
8.875	11
8.88	8
8.885	13
8.89	6
8.895	12
8.9	9
8.905	6
8.91	5
8.915	14
8.92	11
8.925	11
8.93	11
8.935	7
8.94	7
8.945	9
8.95	10
8.955	8
8.96	10
8.965	12
8.97	9
8.975	7
8.98	9
8.985	7
8.99	6
8.995	6
9	10
9.005	8
9.01	15
9.015	6
9.02	7
9.025	9
9.03	5
9.035	9
9.04	7
9.045	9
9.05	10
9.055	4
9.06	7
9.065	8
9.07	2
9.075	10
9.08	6
9.085	7
9.09	6
9.095	6
9.1	4
9.105	8
9.11	10
9.115	5
9.12	5
9.125	9
9.13	9
9.135	7
9.14	8
9.145	4
9.15	4
9.155	9
9.16	13
9.165	11
9.17	11
9.175	11
9.18	6
9.185	8
9.19	4
9.195	4
9.2	13
9.205	7
9.21	7
9.215	7
9.22	5
9.225	6
9.23	6
9.235	12
9.24	4
9.245	9
9.25	5
9.255	6
9.26	10
9.265	6
9.27	7
9.275	8
9.28	12
9.285	7
9.29	7
9.295	11
9.3	10
9.305	9
9.31	5
9.315	7
9.32	12
9.325	7
9.33	4
9.335	15
9.34	8
9.345	10
9.35	14
9.355	10
9.36	3
9.365	9
9.37	3
9.375	7
9.38	7
9.385	7
9.39	4
9.395	4
9.4	7
9.405	13
9.41	11
9.415	3
9.42	8
9.425	6
9.43	8
9.435	7
9.44	7
9.445	6
9.45	5
9.455	6
9.46	6
9.465	8
9.47	5
9.475	9
9.48	10
9.485	5
9.49	15
9.495	5
9.5	16
9.505	7
9.51	4
9.515	3
9.52	9
9.525	1
9.53	3
9.535	13
9.54	9
9.545	8
9.55	7
9.555	3
9.56	8
9.565	9
9.57	9
9.575	2
9.58	12
9.585	4
9.59	8
9.595	5
9.6	3
9.605	2
9.61	8
9.615	9
9.62	7
9.625	3
9.63	6
9.635	11
9.64	6
9.645	6
9.65	7
9.655	7
9.66	4
9.665	5
9.67	11
9.675	7
9.68	8
9.685	8
9.69	8
9.695	6
9.7	4
9.705	6
9.71	9
9.715	5
9.72	7
9.725	2
9.73	7
9.735	10
9.74	9
9.745	5
9.75	15
9.755	5
9.76	10
9.765	9
9.77	4
9.775	7
9.78	7
9.785	11
9.79	5
9.795	7
9.8	9
9.805	8
9.81	6
9.815	6
9.82	7
9.825	7
9.83	4
9.835	6
9.84	5
9.845	7
9.85	2
9.855	10
9.86	9
9.865	9
9.87	4
9.875	7
9.88	9
9.885	3
9.89	9
9.895	7
9.9	6
9.905	9
9.91	11
9.915	5
9.92	8
9.925	4
9.93	8
9.935	7
9.94	9
9.945	7
9.95	8
9.955	7
9.96	9
9.965	10
9.97	5
9.975	3
9.98	12
9.985	11
9.99	10
9.995	2
10	6
