10	10
10.01	11
10.02	7
10.03	8
10.04	8
10.05	10
10.06	11
10.07	9
10.08	10
10.09	7
10.1	10
10.11	4
10.12	7
10.13	10
10.14	5
10.15	9
10.16	6
10.17	12
10.18	13
10.19	5
10.2	7
10.21	11
10.22	4
10.23	15
10.24	3
10.25	11
10.26	5
10.27	9
10.28	7
10.29	11
10.3	9
10.31	10
10.32	9
10.33	14
10.34	12
10.35	5
10.36	6
10.37	5
10.38	10
10.39	7
10.4	13
10.41	14
10.42	8
10.43	2
10.44	9
10.45	10
10.46	10
10.47	9
10.48	7
10.49	9
10.5	7
10.51	11
10.52	7
10.53	10
10.54	8
10.55	8
10.56	9
10.57	10
10.58	3
10.59	11
10.6	9
10.61	7
10.62	13
10.63	9
10.64	8
10.65	4
10.66	11
10.67	7
10.68	8
10.69	10
10.7	8
10.71	11
10.72	11
10.73	4
10.74	12
10.75	10
10.76	9
10.77	9
10.78	9
10.79	5
10.8	12
10.81	12
10.82	14
10.83	15
10.84	7
10.85	9
10.86	7
10.87	12
10.88	9
10.89	15
10.9	10
10.91	7
10.92	9
10.93	10
10.94	7
10.95	9
10.96	10
10.97	9
10.98	10
10.99	5
11	6
11.01	12
11.02	12
11.03	9
11.04	11
11.05	8
11.06	5
11.07	9
11.08	6
11.09	5
11.1	3
11.11	6
11.12	7
11.13	12
11.14	7
11.15	9
11.16	4
11.17	7
11.18	18
11.19	10
11.2	10
11.21	11
11.22	10
11.23	6
11.24	9
11.25	9
11.26	5
11.27	10
11.28	7
11.29	11
11.3	10
11.31	9
11.32	10
11.33	9
11.34	11
11.35	12
11.36	7
11.37	3
11.38	12
11.39	8
11.4	5
11.41	7
11.42	9
11.43	6
11.44	7
11.45	13
11.46	13
11.47	11
11.48	10
11.49	14
11.5	11
11.51	9
11.52	6
11.53	4
11.54	6
11.55	7
11.56	9
11.57	5
11.58	8
11.59	6
11.6	13
11.61	14
11.62	12
11.63	11
11.64	14
11.65	11
11.66	10
11.67	9
11.68	9
11.69	9
11.7	15
11.71	10
11.72	8
11.73	8
11.74	9
11.75	9
11.76	22
11.77	7
11.78	10
11.79	9
11.8	20
11.81	14
11.82	15
11.83	11
11.84	11
11.85	10
11.86	6
11.87	10
11.88	8
11.89	9
11.9	7
11.91	13
11.92	9
11.93	15
11.94	8
11.95	21
11.96	11
11.97	10
11.98	10
11.99	9
12	9
12.01	12
12.02	9
12.03	8
12.04	12
12.05	7
12.06	7
12.07	10
12.08	11
12.09	7
12.1	9
12.11	11
12.12	5
12.13	13
12.14	11
12.15	9
12.16	9
12.17	9
12.18	5
12.19	8
12.2	13
12.21	8
12.22	9
12.23	11
12.24	4
12.25	10
12.26	15
12.27	10
12.28	11
12.29	9
12.3	14
12.31	5
12.32	11
12.33	3
12.34	13
12.35	6
12.36	10
12.37	10
12.38	7
12.39	8
12.4	9
12.41	9
12.42	6
12.43	12
12.44	7
12.45	9
12.46	9
12.47	10
12.48	10
12.49	11
12.5	11
12.51	10
12.52	10
12.53	6
12.54	9
12.55	6
12.56	7
12.57	10
12.58	11
12.59	10
12.6	10
12.61	7
12.62	9
12.63	7
12.64	6
12.65	5
12.66	7
12.67	11
12.68	4
12.69	9
12.7	9
12.71	7
12.72	5
12.73	10
12.74	6
12.75	12
12.76	4
12.77	7
12.78	5
12.79	11
12.8	8
12.81	8
12.82	11
12.83	8
12.84	5
12.85	10
12.86	3
12.87	14
12.88	9
12.89	12
12.9	7
12.91	10
12.92	8
12.93	7
12.94	9
12.95	9
12.96	10
12.97	9
12.98	9
12.99	13
13	6
13.01	15
13.02	5
13.03	13
13.04	9
13.05	5
13.06	8
13.07	5
13.08	10
13.09	8
13.1	12
13.11	10
13.12	6
13.13	11
13.14	9
13.15	7
13.16	10
13.17	8
13.18	7
13.19	7
13.2	14
13.21	11
13.22	5
13.23	10
13.24	7
13.25	7
13.26	9
13.27	4
13.28	8
13.29	9
13.3	7
13.31	4
13.32	7
13.33	9
13.34	4
13.35	11
13.36	10
13.37	6
13.38	7
13.39	7
13.4	11
13.41	9
13.42	6
13.43	6
13.44	9
13.45	10
13.46	5
13.47	6
13.48	9
13.49	7
13.5	8
13.51	9
13.52	10
13.53	8
13.54	9
13.55	6
13.56	11
13.57	5
13.58	8
13.59	8
13.6	5
13.61	10
13.62	6
13.63	11
13.64	13
13.65	6
13.66	9
13.67	8
13.68	11
13.69	10
13.7	5
13.71	10
13.72	12
13.73	7
13.74	6
13.75	7
13.76	11
13.77	7
13.78	8
13.79	10
13.8	11
13.81	10
13.82	12
13.83	15
13.84	7
13.85	10
13.86	12
13.87	11
13.88	6
13.89	3
13.9	7
13.91	2
13.92	13
13.93	12
13.94	8
13.95	10
13.96	9
13.97	12
13.98	4
13.99	13
14	7
14.01	8
14.02	15
14.03	14
14.04	7
14.05	14
14.06	17
14.07	9
14.08	16
14.09	9
14.1	8
14.11	11
14.12	13
14.13	14
14.14	10
14.15	8
14.16	8
14.17	14
14.18	12
14.19	8
14.2	5
14.21	14
14.22	11
14.23	11
14.24	11
14.25	15
14.26	9
14.27	13
14.28	7
14.29	13
14.3	7
14.31	10
14.32	12
14.33	11
14.34	14
14.35	8
14.36	5
14.37	13
14.38	15
14.39	16
14.4	8
14.41	12
14.42	5
14.43	16
14.44	18
14.45	8
14.46	11
14.47	13
14.48	14
14.49	13
14.5	19
14.51	7
14.52	16
14.53	15
14.54	23
14.55	13
14.56	9
14.57	11
14.58	10
14.59	10
14.6	22
14.61	10
14.62	13
14.63	17
14.64	17
14.65	14
14.66	11
14.67	24
14.68	23
14.69	8
14.7	25
14.71	16
14.72	23
14.73	17
14.74	20
14.75	20
14.76	21
14.77	23
14.78	26
14.79	30
14.8	19
14.81	24
14.82	27
14.83	27
14.84	29
14.85	37
14.86	42
14.87	40
14.88	45
14.89	30
14.9	36
14.91	46
14.92	34
14.93	48
14.94	44
14.95	58
14.96	81
14.97	80
14.98	75
14.99	82
15	80
15.01	90
15.02	112
15.03	148
15.04	206
15.05	329
15.06	438
15.07	610
15.08	767
15.09	842
15.1	910
15.11	966
15.12	977
15.13	866
15.14	732
15.15	661
15.16	492
15.17	348
15.18	280
15.19	156
15.2	122
15.21	122
15.22	67
15.23	67
15.24	58
15.25	50
15.26	55
15.27	52
15.28	46
15.29	29
15.3	33
15.31	29
15.32	23
15.33	26
15.34	33
15.35	26
15.36	24
15.37	24
15.38	22
15.39	22
15.4	28
15.41	18
15.42	18
15.43	14
15.44	20
15.45	15
15.46	16
15.47	15
15.48	16
15.49	20
15.5	17
15.51	12
15.52	15
15.53	18
15.54	8
15.55	10
15.56	15
15.57	16
15.58	10
15.59	16
15.6	16
15.61	18
15.62	14
15.63	20
15.64	7
15.65	4
15.66	17
15.67	14
15.68	8
15.69	19
15.7	11
15.71	9
15.72	8
15.73	14
15.74	13
15.75	11
15.76	9
15.77	12
15.78	14
15.79	9
15.8	8
15.81	12
15.82	8
15.83	7
15.84	10
15.85	7
15.86	9
15.87	11
15.88	3
15.89	8
15.9	5
15.91	10
15.92	10
15.93	16
15.94	11
15.95	6
15.96	8
15.97	11
15.98	3
15.99	13
16	10
16.01	6
16.02	11
16.03	8
16.04	6
16.05	10
16.06	6
16.07	6
16.08	5
16.09	11
16.1	8
16.11	8
16.12	10
16.13	13
16.14	12
16.15	17
16.16	7
16.17	7
16.18	9
16.19	8
16.2	13
16.21	8
16.22	3
16.23	9
16.24	7
16.25	6
16.26	7
16.27	6
16.28	12
16.29	7
16.3	7
16.31	6
16.32	9
16.33	12
16.34	10
16.35	4
16.36	10
16.37	11
16.38	13
16.39	13
16.4	9
16.41	16
16.42	5
16.43	13
16.44	11
16.45	6
16.46	3
16.47	6
16.48	12
16.49	14
16.5	7
16.51	17
16.52	9
16.53	7
16.54	6
16.55	2
16.56	6
16.57	8
16.58	7
16.59	14
16.6	7
16.61	11
16.62	3
16.63	9
16.64	11
16.65	4
16.66	7
16.67	9
16.68	8
16.69	8
16.7	9
16.71	4
16.72	6
16.73	17
16.74	3
16.75	13
16.76	5
16.77	10
16.78	11
16.79	10
16.8	9
16.81	9
16.82	12
16.83	4
16.84	9
16.85	8
16.86	7
16.87	8
16.88	11
16.89	9
16.9	9
16.91	4
16.92	9
16.93	7
16.94	4
16.95	6
16.96	10
16.97	6
16.98	11
16.99	11
17	7
17.01	6
17.02	7
17.03	9
17.04	6
17.05	8
17.06	7
17.07	4
17.08	9
17.09	11
17.1	11
17.11	8
17.12	5
17.13	11
17.14	10
17.15	11
17.16	11
17.17	9
17.18	7
17.19	12
17.2	14
17.21	9
17.22	4
17.23	9
17.24	8
17.25	4
17.26	9
17.27	5
17.28	8
17.29	9
17.3	8
17.31	10
17.32	4
17.33	9
17.34	14
17.35	10
17.36	5
17.37	8
17.38	6
17.39	2
17.4	9
17.41	14
17.42	7
17.43	8
17.44	4
17.45	11
17.46	8
17.47	10
17.48	10
17.49	8
17.5	8
17.51	11
17.52	6
17.53	6
17.54	11
17.55	5
17.56	10
17.57	7
17.58	4
17.59	8
17.6	8
17.61	5
17.62	11
17.63	10
17.64	5
17.65	7
17.66	9
17.67	9
17.68	5
17.69	16
17.7	9
17.71	4
17.72	13
17.73	13
17.74	11
17.75	6
17.76	7
17.77	8
17.78	8
17.79	6
17.8	11
17.81	8
17.82	6
17.83	7
17.84	10
17.85	11
17.86	4
17.87	8
17.88	10
17.89	8
17.9	7
17.91	12
17.92	8
17.93	11
17.94	6
17.95	6
17.96	5
17.97	10
17.98	9
17.99	6
18	8
18.01	7
18.02	10
18.03	6
18.04	9
18.05	6
18.06	7
18.07	12
18.08	8
18.09	9
18.1	5
18.11	16
18.12	11
18.13	9
18.14	11
18.15	6
18.16	11
18.17	7
18.18	9
18.19	6
18.2	12
18.21	5
18.22	13
18.23	11
18.24	3
18.25	10
18.26	8
18.27	9
18.28	9
18.29	4
18.3	13
18.31	8
18.32	4
18.33	10
18.34	11
18.35	11
18.36	9
18.37	6
18.38	6
18.39	10
18.4	4
18.41	9
18.42	8
18.43	8
18.44	15
18.45	6
18.46	8
18.47	4
18.48	4
18.49	4
18.5	5
18.51	7
18.52	9
18.53	4
18.54	7
18.55	6
18.56	8
18.57	4
18.58	10
18.59	11
18.6	9
18.61	7
18.62	7
18.63	6
18.64	5
18.65	9
18.66	8
18.67	12
18.68	9
18.69	9
18.7	10
18.71	4
18.72	5
18.73	8
18.74	5
18.75	5
18.76	10
18.77	6
18.78	10
18.79	9
18.8	9
18.81	9
18.82	11
18.83	11
18.84	7
18.85	6
18.86	8
18.87	3
18.88	5
18.89	8
18.9	9
18.91	7
18.92	5
18.93	11
18.94	2
18.95	7
18.96	5
18.97	8
18.98	8
18.99	7
19	5
19.01	7
19.02	12
19.03	9
19.04	9
19.05	7
19.06	8
19.07	7
19.08	11
19.09	7
19.1	5
19.11	6
19.12	4
19.13	7
19.14	5
19.15	4
19.16	5
19.17	7
19.18	9
19.19	6
19.2	5
19.21	11
19.22	7
19.23	6
19.24	7
19.25	3
19.26	7
19.27	8
19.28	11
19.29	8
19.3	12
19.31	11
19.32	8
19.33	7
19.34	3
19.35	11
19.36	12
19.37	5
19.38	7
19.39	9
19.4	9
19.41	9
19.42	9
19.43	5
19.44	10
19.45	8
19.46	8
19.47	4
19.48	10
19.49	9
19.5	7
19.51	9
19.52	9
19.53	7
19.54	10
19.55	12
19.56	9
19.57	5
19.58	6
19.59	6
19.6	5
19.61	5
19.62	8
19.63	4
19.64	8
19.65	8
19.66	13
19.67	8
19.68	10
19.69	2
19.7	10
19.71	10
19.72	7
19.73	6
19.74	3
19.75	3
19.76	5
19.77	11
19.78	5
19.79	14
19.8	6
19.81	8
19.82	8
19.83	7
19.84	9
19.85	8
19.86	9
19.87	12
19.88	9
19.89	8
19.9	6
19.91	5
19.92	8
19.93	9
19.94	1
19.95	12
19.96	7
19.97	7
19.98	7
19.99	15
20	6
20.01	9
20.02	2
20.03	5
20.04	5
20.05	8
20.06	8
20.07	10
20.08	11
20.09	6
20.1	6
20.11	9
20.12	2
20.13	9
20.14	14
20.15	11
20.16	5
20.17	8
20.18	6
20.19	10
20.2	5
20.21	7
20.22	4
20.23	6
20.24	7
20.25	13
20.26	6
20.27	6
20.28	6
20.29	7
20.3	8
20.31	6
20.32	9
20.33	11
20.34	5
20.35	9
20.36	7
20.37	6
20.38	18
20.39	8
20.4	6
20.41	3
20.42	5
20.43	5
20.44	12
20.45	9
20.46	10
20.47	15
20.48	10
20.49	5
20.5	9
20.51	10
20.52	7
20.53	6
20.54	10
20.55	3
20.56	6
20.57	14
20.58	8
20.59	12
20.6	6
20.61	6
20.62	9
20.63	10
20.64	7
20.65	12
20.66	8
20.67	7
20.68	6
20.69	5
20.7	8
20.71	9
20.72	7
20.73	10
20.74	8
20.75	6
20.76	3
20.77	12
20.78	7
20.79	16
20.8	6
20.81	7
20.82	11
20.83	9
20.84	10
20.85	16
20.86	8
20.87	10
20.88	12
20.89	5
20.9	3
20.91	6
20.92	14
20.93	5
20.94	11
20.95	7
20.96	9
20.97	8
20.98	13
20.99	7
21	8
21.01	8
21.02	11
21.03	6
21.04	7
21.05	8
21.06	7
21.07	8
21.08	9
21.09	10
21.1	5
21.11	16
21.12	10
21.13	12
21.14	5
21.15	7
21.16	5
21.17	6
21.18	5
21.19	13
21.2	9
21.21	5
21.22	6
21.23	11
21.24	10
21.25	13
21.26	8
21.27	5
21.28	13
21.29	9
21.3	11
21.31	7
21.32	9
21.33	7
21.34	8
21.35	10
21.36	7
21.37	11
21.38	3
21.39	10
21.4	5
21.41	8
21.42	12
21.43	12
21.44	8
21.45	5
21.46	6
21.47	14
21.48	10
21.49	10
21.5	9
21.51	14
21.52	6
21.53	4
21.54	8
21.55	7
21.56	12
21.57	7
21.58	13
21.59	16
21.6	18
21.61	7
21.62	4
21.63	5
21.64	7
21.65	11
21.66	12
21.67	8
21.68	9
21.69	6
21.7	9
21.71	7
21.72	9
21.73	10
21.74	6
21.75	11
21.76	10
21.77	6
21.78	10
21.79	9
21.8	13
21.81	12
21.82	14
21.83	13
21.84	5
21.85	10
21.86	13
21.87	10
21.88	9
21.89	14
21.9	9
21.91	8
21.92	12
21.93	15
21.94	12
21.95	12
21.96	11
21.97	10
21.98	11
21.99	8
22	11
22.01	9
22.02	11
22.03	3
22.04	7
22.05	11
22.06	15
22.07	12
22.08	19
22.09	6
22.1	11
22.11	15
22.12	12
22.13	15
22.14	18
22.15	9
22.16	14
22.17	26
22.18	18
22.19	21
22.2	20
22.21	21
22.22	17
22.23	23
22.24	23
22.25	28
22.26	23
22.27	28
22.28	20
22.29	16
22.3	16
22.31	20
22.32	25
22.33	26
22.34	23
22.35	25
22.36	37
22.37	27
22.38	25
22.39	37
22.4	34
22.41	34
22.42	39
22.43	37
22.44	41
22.45	28
22.46	36
22.47	66
22.48	55
22.49	63
22.5	56
22.51	67
22.52	69
22.53	74
22.54	84
22.55	98
22.56	115
22.57	129
22.58	143
22.59	169
22.6	147
22.61	195
22.62	218
22.63	222
22.64	308
22.65	412
22.66	543
22.67	758
22.68	1066
22.69	1379
22.7	1815
22.71	2223
22.72	2879
22.73	7653
22.74	33856
22.75	89237
22.76	162507
22.77	202254
22.78	152634
22.79	70394
22.8	15193
22.81	1928
22.82	944
22.83	709
22.84	481
22.85	372
22.86	333
22.87	263
22.88	240
22.89	221
22.9	185
22.91	167
22.92	142
22.93	141
22.94	115
22.95	120
22.96	100
22.97	106
22.98	99
22.99	80
23	80
23.01	60
23.02	74
23.03	62
23.04	67
23.05	58
23.06	55
23.07	68
23.08	49
23.09	46
23.1	44
23.11	50
23.12	41
23.13	32
23.14	37
23.15	38
23.16	44
23.17	36
23.18	23
23.19	28
23.2	35
23.21	46
23.22	34
23.23	32
23.24	28
23.25	32
23.26	27
23.27	29
23.28	20
23.29	27
23.3	20
23.31	22
23.32	32
23.33	21
23.34	27
23.35	27
23.36	29
23.37	21
23.38	31
23.39	32
23.4	24
23.41	18
23.42	26
23.43	23
23.44	23
23.45	24
23.46	20
23.47	19
23.48	21
23.49	16
23.5	20
23.51	15
23.52	21
23.53	19
23.54	20
23.55	17
23.56	20
23.57	25
23.58	19
23.59	15
23.6	19
23.61	18
23.62	24
23.63	19
23.64	15
23.65	17
23.66	16
23.67	18
23.68	12
23.69	14
23.7	14
23.71	14
23.72	17
23.73	11
23.74	24
23.75	10
23.76	24
23.77	22
23.78	17
23.79	11
23.8	15
23.81	12
23.82	18
23.83	17
23.84	21
23.85	14
23.86	18
23.87	21
23.88	15
23.89	12
23.9	14
23.91	12
23.92	22
23.93	20
23.94	11
23.95	17
23.96	15
23.97	15
23.98	15
23.99	16
24	17
24.01	22
24.02	14
24.03	22
24.04	17
24.05	16
24.06	11
24.07	15
24.08	12
24.09	12
24.1	16
24.11	12
24.12	16
24.13	16
24.14	17
24.15	12
24.16	16
24.17	12
24.18	14
24.19	15
24.2	16
24.21	19
24.22	13
24.23	16
24.24	6
24.25	13
24.26	16
24.27	17
24.28	12
24.29	17
24.3	12
24.31	9
24.32	11
24.33	17
24.34	15
24.35	12
24.36	10
24.37	11
24.38	19
24.39	19
24.4	15
24.41	11
24.42	20
24.43	11
24.44	13
24.45	15
24.46	16
24.47	20
24.48	20
24.49	14
24.5	17
24.51	18
24.52	18
24.53	11
24.54	16
24.55	17
24.56	15
24.57	20
24.58	19
24.59	13
24.6	19
24.61	5
24.62	13
24.63	12
24.64	18
24.65	14
24.66	12
24.67	14
24.68	9
24.69	15
24.7	11
24.71	18
24.72	15
24.73	7
24.74	10
24.75	10
24.76	13
24.77	11
24.78	15
24.79	8
24.8	12
24.81	9
24.82	5
24.83	11
24.84	16
24.85	14
24.86	21
24.87	12
24.88	16
24.89	11
24.9	8
24.91	13
24.92	10
24.93	8
24.94	13
24.95	9
24.96	6
24.97	17
24.98	11
24.99	13
25	10
25.01	14
25.02	11
25.03	12
25.04	9
25.05	9
25.06	6
25.07	11
25.08	20
25.09	11
25.1	12
25.11	6
25.12	5
25.13	8
25.14	12
25.15	13
25.16	9
25.17	9
25.18	6
25.19	12
25.2	10
25.21	7
25.22	15
25.23	7
25.24	9
25.25	16
25.26	11
25.27	13
25.28	11
25.29	8
25.3	11
25.31	10
25.32	12
25.33	8
25.34	9
25.35	12
25.36	10
25.37	9
25.38	9
25.39	6
25.4	14
25.41	6
25.42	11
25.43	9
25.44	11
25.45	16
25.46	13
25.47	10
25.48	6
25.49	13
25.5	5
25.51	11
25.52	13
25.53	8
25.54	8
25.55	10
25.56	11
25.57	5
25.58	13
25.59	8
25.6	11
25.61	12
25.62	11
25.63	10
25.64	9
25.65	3
25.66	10
25.67	9
25.68	8
25.69	7
25.7	11
25.71	6
25.72	10
25.73	9
25.74	11
25.75	10
25.76	13
25.77	7
25.78	9
25.79	7
25.8	10
25.81	12
25.82	8
25.83	11
25.84	9
25.85	12
25.86	6
25.87	12
25.88	12
25.89	9
25.9	13
25.91	7
25.92	13
25.93	13
25.94	7
25.95	14
25.96	11
25.97	12
25.98	13
25.99	9
26	13
26.01	16
26.02	7
26.03	14
26.04	8
26.05	13
26.06	7
26.07	10
26.08	17
26.09	5
26.1	10
26.11	5
26.12	9
26.13	12
26.14	9
26.15	12
26.16	11
26.17	8
26.18	5
26.19	11
26.2	12
26.21	4
26.22	14
26.23	6
26.24	13
26.25	9
26.26	16
26.27	8
26.28	8
26.29	7
26.3	12
26.31	7
26.32	14
26.33	10
26.34	12
26.35	6
26.36	8
26.37	7
26.38	14
26.39	9
26.4	8
26.41	7
26.42	12
26.43	6
26.44	11
26.45	9
26.46	4
26.47	6
26.48	8
26.49	17
26.5	11
26.51	11
26.52	9
26.53	5
26.54	12
26.55	17
26.56	8
26.57	4
26.58	8
26.59	14
26.6	9
26.61	8
26.62	12
26.63	9
26.64	7
26.65	7
26.66	6
26.67	8
26.68	10
26.69	17
26.7	11
26.71	9
26.72	11
26.73	6
26.74	7
26.75	9
26.76	5
26.77	10
26.78	12
26.79	9
26.8	11
26.81	9
26.82	13
26.83	12
26.84	10
26.85	5
26.86	13
26.87	5
26.88	9
26.89	5
26.9	12
26.91	11
26.92	13
26.93	7
26.94	10
26.95	10
26.96	8
26.97	13
26.98	11
26.99	18
27	8
27.01	13
27.02	10
27.03	12
27.04	14
27.05	7
27.06	10
27.07	13
27.08	13
27.09	10
27.1	10
27.11	10
27.12	5
27.13	13
27.14	8
27.15	8
27.16	5
27.17	10
27.18	8
27.19	9
27.2	12
27.21	10
27.22	10
27.23	15
27.24	8
27.25	10
27.26	6
27.27	8
27.28	4
27.29	8
27.3	9
27.31	10
27.32	11
27.33	9
27.34	6
27.35	8
27.36	11
27.37	4
27.38	9
27.39	9
27.4	12
27.41	14
27.42	11
27.43	9
27.44	4
27.45	6
27.46	6
27.47	5
27.48	7
27.49	9
27.5	10
27.51	10
27.52	7
27.53	8
27.54	9
27.55	4
27.56	9
27.57	8
27.58	9
27.59	8
27.6	5
27.61	9
27.62	9
27.63	7
27.64	6
27.65	4
27.66	4
27.67	4
27.68	12
27.69	10
27.7	7
27.71	11
27.72	5
27.73	9
27.74	14
27.75	10
27.76	9
27.77	11
27.78	12
27.79	6
27.8	8
27.81	6
27.82	5
27.83	10
27.84	10
27.85	9
27.86	4
27.87	9
27.88	10
27.89	9
27.9	8
27.91	8
27.92	12
27.93	5
27.94	7
27.95	10
27.96	5
27.97	3
27.98	6
27.99	13
28	5
28.01	8
28.02	7
28.03	7
28.04	7
28.05	12
28.06	10
28.07	8
28.08	9
28.09	8
28.1	8
28.11	13
28.12	6
28.13	4
28.14	8
28.15	15
28.16	6
28.17	5
28.18	13
28.19	6
28.2	17
28.21	9
28.22	13
28.23	6
28.24	8
28.25	6
28.26	13
28.27	12
28.28	9
28.29	6
28.3	10
28.31	7
28.32	16
28.33	8
28.34	5
28.35	10
28.36	9
28.37	7
28.38	10
28.39	5
28.4	5
28.41	7
28.42	9
28.43	8
28.44	11
28.45	6
28.46	11
28.47	9
28.48	9
28.49	6
28.5	6
28.51	10
28.52	7
28.53	5
28.54	7
28.55	9
28.56	8
28.57	11
28.58	7
28.59	7
28.6	8
28.61	12
28.62	13
28.63	7
28.64	9
28.65	10
28.66	5
28.67	8
28.68	14
28.69	4
28.7	9
28.71	9
28.72	14
28.73	11
28.74	6
28.75	9
28.76	7
28.77	10
28.78	8
28.79	8
28.8	3
28.81	9
28.82	7
28.83	10
28.84	5
28.85	7
28.86	9
28.87	8
28.88	11
28.89	12
28.9	10
28.91	6
28.92	13
28.93	9
28.94	3
28.95	11
28.96	7
28.97	10
28.98	10
28.99	6
29	10
29.01	8
29.02	6
29.03	6
29.04	15
29.05	6
29.06	7
29.07	15
29.08	11
29.09	15
29.1	10
29.11	8
29.12	5
29.13	8
29.14	12
29.15	8
29.16	6
29.17	4
29.18	5
29.19	8
29.2	10
29.21	5
29.22	9
29.23	9
29.24	8
29.25	4
29.26	17
29.27	17
29.28	8
29.29	9
29.3	5
29.31	12
29.32	13
29.33	6
29.34	8
29.35	11
29.36	14
29.37	11
29.38	7
29.39	6
29.4	11
29.41	8
29.42	11
29.43	8
29.44	10
29.45	4
29.46	9
29.47	14
29.48	7
29.49	5
29.5	5
29.51	9
29.52	11
29.53	9
29.54	9
29.55	15
29.56	8
29.57	13
29.58	5
29.59	8
29.6	10
29.61	4
29.62	7
29.63	10
29.64	10
29.65	3
29.66	11
29.67	9
29.68	9
29.69	10
29.7	12
29.71	8
29.72	5
29.73	10
29.74	9
29.75	13
29.76	9
29.77	6
29.78	3
29.79	11
29.8	9
29.81	7
29.82	4
29.83	6
29.84	10
29.85	8
29.86	6
29.87	7
29.88	9
29.89	7
29.9	7
29.91	6
29.92	9
29.93	7
29.94	8
29.95	2
29.96	7
29.97	9
29.98	4
29.99	7
30	13
30.01	13
30.02	13
30.03	11
30.04	15
30.05	6
30.06	9
30.07	16
30.08	10
30.09	10
30.1	12
30.11	13
30.12	6
30.13	4
30.14	10
30.15	12
30.16	8
30.17	12
30.18	11
30.19	6
30.2	12
30.21	11
30.22	9
30.23	12
30.24	9
30.25	14
30.26	12
30.27	20
30.28	12
30.29	14
30.3	13
30.31	11
30.32	7
30.33	18
30.34	13
30.35	28
30.36	19
30.37	22
30.38	36
30.39	44
30.4	51
30.41	75
30.42	101
30.43	93
30.44	136
30.45	137
30.46	162
30.47	157
30.48	181
30.49	154
30.5	154
30.51	138
30.52	95
30.53	101
30.54	86
30.55	72
30.56	60
30.57	55
30.58	50
30.59	44
30.6	41
30.61	36
30.62	36
30.63	33
30.64	24
30.65	21
30.66	21
30.67	20
30.68	18
30.69	14
30.7	22
30.71	21
30.72	18
30.73	17
30.74	17
30.75	17
30.76	14
30.77	13
30.78	21
30.79	20
30.8	12
30.81	23
30.82	18
30.83	13
30.84	18
30.85	11
30.86	17
30.87	10
30.88	14
30.89	11
30.9	12
30.91	15
30.92	16
30.93	17
30.94	11
30.95	17
30.96	11
30.97	15
30.98	13
30.99	11
31	12
31.01	9
31.02	9
31.03	10
31.04	15
31.05	10
31.06	12
31.07	5
31.08	14
31.09	4
31.1	7
31.11	9
31.12	5
31.13	13
31.14	12
31.15	6
31.16	11
31.17	16
31.18	10
31.19	11
31.2	5
31.21	12
31.22	10
31.23	9
31.24	13
31.25	10
31.26	10
31.27	12
31.28	14
31.29	10
31.3	15
31.31	12
31.32	16
31.33	10
31.34	14
31.35	11
31.36	11
31.37	12
31.38	13
31.39	10
31.4	13
31.41	15
31.42	10
31.43	11
31.44	14
31.45	8
31.46	14
31.47	13
31.48	19
31.49	7
31.5	12
31.51	7
31.52	11
31.53	16
31.54	12
31.55	12
31.56	9
31.57	9
31.58	8
31.59	11
31.6	14
31.61	12
31.62	8
31.63	10
31.64	11
31.65	15
31.66	11
31.67	8
31.68	21
31.69	3
31.7	5
31.71	9
31.72	13
31.73	15
31.74	4
31.75	9
31.76	12
31.77	10
31.78	8
31.79	5
31.8	16
31.81	3
31.82	11
31.83	13
31.84	13
31.85	12
31.86	16
31.87	8
31.88	6
31.89	10
31.9	9
31.91	11
31.92	11
31.93	8
31.94	7
31.95	6
31.96	9
31.97	9
31.98	7
31.99	10
32	13
32.01	11
32.02	6
32.03	11
32.04	14
32.05	10
32.06	9
32.07	7
32.08	12
32.09	8
32.1	8
32.11	9
32.12	6
32.13	15
32.14	7
32.15	13
32.16	9
32.17	9
32.18	17
32.19	12
32.2	15
32.21	9
32.22	7
32.23	5
32.24	6
32.25	4
32.26	9
32.27	14
32.28	6
32.29	13
32.3	11
32.31	4
32.32	10
32.33	8
32.34	8
32.35	10
32.36	15
32.37	13
32.38	13
32.39	13
32.4	11
32.41	9
32.42	8
32.43	7
32.44	5
32.45	10
32.46	10
32.47	10
32.48	11
32.49	4
32.5	6
32.51	15
32.52	11
32.53	10
32.54	9
32.55	5
32.56	14
32.57	14
32.58	4
32.59	13
32.6	10
32.61	7
32.62	5
32.63	12
32.64	6
32.65	8
32.66	8
32.67	7
32.68	12
32.69	12
32.7	9
32.71	11
32.72	15
32.73	12
32.74	11
32.75	4
32.76	8
32.77	8
32.78	5
32.79	12
32.8	12
32.81	10
32.82	7
32.83	9
32.84	12
32.85	11
32.86	13
32.87	12
32.88	7
32.89	12
32.9	5
32.91	9
32.92	6
32.93	11
32.94	12
32.95	17
32.96	10
32.97	6
32.98	9
32.99	3
33	6
33.01	14
33.02	11
33.03	7
33.04	16
33.05	19
33.06	11
33.07	12
33.08	12
33.09	13
33.1	7
33.11	7
33.12	10
33.13	14
33.14	12
33.15	11
33.16	8
33.17	11
33.18	14
33.19	12
33.2	8
33.21	13
33.22	7
33.23	11
33.24	12
33.25	21
33.26	5
33.27	8
33.28	14
33.29	8
33.3	8
33.31	8
33.32	12
33.33	8
33.34	18
33.35	12
33.36	10
33.37	11
33.38	17
33.39	11
33.4	13
33.41	20
33.42	25
33.43	18
33.44	23
33.45	21
33.46	22
33.47	18
33.48	24
33.49	21
33.5	14
33.51	15
33.52	16
33.53	14
33.54	15
33.55	22
33.56	14
33.57	17
33.58	11
33.59	8
33.6	23
33.61	18
33.62	17
33.63	15
33.64	14
33.65	17
33.66	19
33.67	21
33.68	25
33.69	17
33.7	17
33.71	20
33.72	24
33.73	27
33.74	35
33.75	20
33.76	29
33.77	36
33.78	38
33.79	28
33.8	24
33.81	31
33.82	24
33.83	25
33.84	31
33.85	21
33.86	25
33.87	24
33.88	25
33.89	15
33.9	17
33.91	20
33.92	26
33.93	29
33.94	15
33.95	21
33.96	24
33.97	17
33.98	26
33.99	28
34	14
34.01	21
34.02	17
34.03	17
34.04	17
34.05	22
34.06	16
34.07	22
34.08	18
34.09	16
34.1	18
34.11	19
34.12	20
34.13	15
34.14	14
34.15	14
34.16	15
34.17	17
34.18	18
34.19	11
34.2	17
34.21	14
34.22	22
34.23	11
34.24	10
34.25	16
34.26	11
34.27	19
34.28	19
34.29	11
34.3	26
34.31	22
34.32	19
34.33	14
34.34	15
34.35	12
34.36	13
34.37	12
34.38	16
34.39	8
34.4	17
34.41	16
34.42	14
34.43	15
34.44	14
34.45	13
34.46	11
34.47	19
34.48	9
34.49	15
34.5	25
34.51	12
34.52	7
34.53	12
34.54	9
34.55	12
34.56	11
34.57	14
34.58	8
34.59	20
34.6	5
34.61	15
34.62	15
34.63	12
34.64	9
34.65	8
34.66	9
34.67	16
34.68	13
34.69	11
34.7	12
34.71	9
34.72	9
34.73	7
34.74	12
34.75	8
34.76	6
34.77	14
34.78	10
34.79	11
34.8	9
34.81	14
34.82	15
34.83	11
34.84	10
34.85	9
34.86	12
34.87	9
34.88	9
34.89	10
34.9	9
34.91	9
34.92	17
34.93	8
34.94	13
34.95	13
34.96	11
34.97	13
34.98	10
34.99	7
35	8
35.01	10
35.02	7
35.03	13
35.04	13
35.05	16
35.06	7
35.07	6
35.08	12
35.09	7
35.1	10
35.11	12
35.12	13
35.13	11
35.14	10
35.15	3
35.16	11
35.17	9
35.18	14
35.19	9
35.2	9
35.21	11
35.22	6
35.23	14
35.24	13
35.25	9
35.26	9
35.27	11
35.28	8
35.29	10
35.3	10
35.31	16
35.32	9
35.33	8
35.34	7
35.35	6
35.36	13
35.37	16
35.38	9
35.39	13
35.4	12
35.41	7
35.42	9
35.43	13
35.44	10
35.45	11
35.46	11
35.47	5
35.48	6
35.49	6
35.5	10
35.51	16
35.52	9
35.53	9
35.54	13
35.55	12
35.56	4
35.57	6
35.58	13
35.59	8
35.6	13
35.61	9
35.62	7
35.63	15
35.64	6
35.65	7
35.66	16
35.67	8
35.68	6
35.69	9
35.7	8
35.71	8
35.72	8
35.73	9
35.74	7
35.75	9
35.76	10
35.77	7
35.78	10
35.79	10
35.8	8
35.81	9
35.82	9
35.83	7
35.84	17
35.85	11
35.86	10
35.87	10
35.88	12
35.89	9
35.9	10
35.91	7
35.92	8
35.93	11
35.94	8
35.95	12
35.96	6
35.97	12
35.98	7
35.99	8
36	8
36.01	8
36.02	13
36.03	8
36.04	7
36.05	5
36.06	18
36.07	12
36.08	8
36.09	8
36.1	11
36.11	12
36.12	11
36.13	7
36.14	17
36.15	8
36.16	16
36.17	13
36.18	6
36.19	13
36.2	9
36.21	11
36.22	15
36.23	7
36.24	10
36.25	3
36.26	15
36.27	13
36.28	13
36.29	9
36.3	11
36.31	10
36.32	14
36.33	15
36.34	7
36.35	17
36.36	16
36.37	12
36.38	13
36.39	20
36.4	12
36.41	7
36.42	15
36.43	13
36.44	8
36.45	10
36.46	18
36.47	6
36.48	17
36.49	8
36.5	20
36.51	15
36.52	18
36.53	9
36.54	7
36.55	13
36.56	12
36.57	14
36.58	8
36.59	8
36.6	14
36.61	9
36.62	13
36.63	11
36.64	11
36.65	14
36.66	15
36.67	15
36.68	12
36.69	7
36.7	13
36.71	6
36.72	13
36.73	16
36.74	9
36.75	10
36.76	8
36.77	9
36.78	11
36.79	5
36.8	10
36.81	11
36.82	12
36.83	17
36.84	21
36.85	9
36.86	16
36.87	13
36.88	9
36.89	9
36.9	12
36.91	6
36.92	19
36.93	19
36.94	13
36.95	7
36.96	13
36.97	13
36.98	10
36.99	15
37	19
37.01	10
37.02	7
37.03	4
37.04	11
37.05	14
37.06	9
37.07	14
37.08	10
37.09	16
37.1	11
37.11	15
37.12	16
37.13	11
37.14	13
37.15	22
37.16	15
37.17	17
37.18	8
37.19	8
37.2	11
37.21	7
37.22	16
37.23	20
37.24	14
37.25	18
37.26	17
37.27	9
37.28	14
37.29	13
37.3	10
37.31	17
37.32	16
37.33	11
37.34	14
37.35	15
37.36	15
37.37	19
37.38	19
37.39	13
37.4	26
37.41	14
37.42	16
37.43	18
37.44	20
37.45	16
37.46	15
37.47	19
37.48	16
37.49	17
37.5	22
37.51	17
37.52	30
37.53	13
37.54	27
37.55	16
37.56	23
37.57	19
37.58	24
37.59	30
37.6	18
37.61	25
37.62	28
37.63	26
37.64	31
37.65	35
37.66	27
37.67	23
37.68	20
37.69	26
37.7	24
37.71	37
37.72	28
37.73	36
37.74	23
37.75	26
37.76	29
37.77	25
37.78	29
37.79	30
37.8	33
37.81	35
37.82	27
37.83	39
37.84	33
37.85	42
37.86	45
37.87	44
37.88	50
37.89	50
37.9	29
37.91	44
37.92	55
37.93	39
37.94	44
37.95	32
37.96	47
37.97	45
37.98	51
37.99	64
38	65
38.01	56
38.02	57
38.03	57
38.04	64
38.05	68
38.06	71
38.07	88
38.08	76
38.09	97
38.1	87
38.11	104
38.12	117
38.13	121
38.14	130
38.15	126
38.16	150
38.17	165
38.18	189
38.19	216
38.2	224
38.21	270
38.22	297
38.23	339
38.24	389
38.25	472
38.26	562
38.27	736
38.28	985
38.29	1234
38.3	1485
38.31	1746
38.32	1975
38.33	2141
38.34	2212
38.35	2276
38.36	2251
38.37	2197
38.38	2038
38.39	1792
38.4	1544
38.41	1362
38.42	1148
38.43	1069
38.44	778
38.45	735
38.46	629
38.47	489
38.48	472
38.49	417
38.5	398
38.51	338
38.52	318
38.53	297
38.54	287
38.55	236
38.56	214
38.57	190
38.58	196
38.59	181
38.6	150
38.61	139
38.62	130
38.63	119
38.64	116
38.65	102
38.66	94
38.67	114
38.68	100
38.69	98
38.7	68
38.71	75
38.72	82
38.73	77
38.74	70
38.75	69
38.76	61
38.77	57
38.78	44
38.79	58
38.8	55
38.81	48
38.82	45
38.83	43
38.84	44
38.85	40
38.86	38
38.87	50
38.88	44
38.89	39
38.9	42
38.91	31
38.92	43
38.93	31
38.94	36
38.95	35
38.96	30
38.97	29
38.98	22
38.99	26
39	25
39.01	29
39.02	33
39.03	25
39.04	27
39.05	17
39.06	21
39.07	28
39.08	27
39.09	23
39.1	22
39.11	15
39.12	19
39.13	23
39.14	22
39.15	12
39.16	24
39.17	15
39.18	14
39.19	17
39.2	20
39.21	22
39.22	24
39.23	25
39.24	22
39.25	27
39.26	20
39.27	17
39.28	20
39.29	11
39.3	20
39.31	16
39.32	15
39.33	16
39.34	17
39.35	26
39.36	11
39.37	12
39.38	12
39.39	11
39.4	11
39.41	13
39.42	16
39.43	18
39.44	9
39.45	11
39.46	9
39.47	13
39.48	13
39.49	11
39.5	13
39.51	13
39.52	13
39.53	15
39.54	12
39.55	12
39.56	18
39.57	15
39.58	15
39.59	22
39.6	12
39.61	14
39.62	10
39.63	5
39.64	10
39.65	11
39.66	14
39.67	19
39.68	19
39.69	15
39.7	10
39.71	14
39.72	8
39.73	12
39.74	14
39.75	10
39.76	14
39.77	13
39.78	10
39.79	9
39.8	13
39.81	12
39.82	6
39.83	10
39.84	8
39.85	12
39.86	7
39.87	8
39.88	10
39.89	16
39.9	12
39.91	14
39.92	13
39.93	10
39.94	8
39.95	8
39.96	10
39.97	17
39.98	12
39.99	14
40	13
40.01	19
40.02	14
40.03	12
40.04	7
40.05	12
40.06	10
40.07	12
40.08	9
40.09	15
40.1	12
40.11	11
40.12	10
40.13	9
40.14	15
40.15	7
40.16	9
40.17	10
40.18	9
40.19	14
40.2	10
40.21	11
40.22	16
40.23	7
40.24	17
40.25	10
40.26	16
40.27	12
40.28	14
40.29	10
40.3	8
40.31	8
40.32	11
40.33	17
40.34	9
40.35	14
40.36	12
40.37	9
40.38	11
40.39	7
40.4	11
40.41	9
40.42	7
40.43	11
40.44	13
40.45	11
40.46	8
40.47	8
40.48	13
40.49	17
40.5	7
40.51	10
40.52	7
40.53	11
40.54	14
40.55	7
40.56	12
40.57	10
40.58	15
40.59	12
40.6	12
40.61	7
40.62	10
40.63	11
40.64	14
40.65	10
40.66	16
40.67	9
40.68	16
40.69	8
40.7	5
40.71	10
40.72	13
40.73	6
40.74	10
40.75	11
40.76	23
40.77	10
40.78	10
40.79	11
40.8	10
40.81	8
40.82	3
40.83	12
40.84	19
40.85	12
40.86	11
40.87	10
40.88	11
40.89	9
40.9	6
40.91	8
40.92	12
40.93	9
40.94	18
40.95	7
40.96	12
40.97	14
40.98	6
40.99	11
41	13
41.01	8
41.02	8
41.03	6
41.04	5
41.05	13
41.06	14
41.07	8
41.08	7
41.09	10
41.1	10
41.11	9
41.12	10
41.13	10
41.14	20
41.15	8
41.16	7
41.17	12
41.18	13
41.19	12
41.2	11
41.21	11
41.22	10
41.23	11
41.24	6
41.25	7
41.26	10
41.27	9
41.28	7
41.29	1
41.3	8
41.31	9
41.32	11
41.33	12
41.34	12
41.35	17
41.36	14
41.37	8
41.38	7
41.39	10
41.4	11
41.41	14
41.42	8
41.43	4
41.44	8
41.45	13
41.46	4
41.47	9
41.48	10
41.49	9
41.5	11
41.51	6
41.52	7
41.53	12
41.54	8
41.55	9
41.56	5
41.57	12
41.58	14
41.59	15
41.6	15
41.61	7
41.62	8
41.63	11
41.64	8
41.65	11
41.66	9
41.67	10
41.68	4
41.69	13
41.7	13
41.71	9
41.72	8
41.73	9
41.74	5
41.75	13
41.76	11
41.77	6
41.78	8
41.79	10
41.8	10
41.81	15
41.82	5
41.83	11
41.84	8
41.85	10
41.86	10
41.87	14
41.88	10
41.89	4
41.9	8
41.91	12
41.92	10
41.93	9
41.94	7
41.95	18
41.96	8
41.97	10
41.98	6
41.99	11
42	15
42.01	10
42.02	18
42.03	9
42.04	12
42.05	12
42.06	11
42.07	11
42.08	9
42.09	10
42.1	13
42.11	7
42.12	10
42.13	15
42.14	15
42.15	12
42.16	10
42.17	8
42.18	9
42.19	15
42.2	8
42.21	10
42.22	11
42.23	11
42.24	11
42.25	12
42.26	11
42.27	9
42.28	6
42.29	11
42.3	8
42.31	8
42.32	4
42.33	14
42.34	10
42.35	12
42.36	5
42.37	8
42.38	15
42.39	8
42.4	4
42.41	8
42.42	11
42.43	9
42.44	7
42.45	11
42.46	8
42.47	11
42.48	2
42.49	12
42.5	9
42.51	10
42.52	8
42.53	11
42.54	8
42.55	6
42.56	9
42.57	10
42.58	18
42.59	8
42.6	9
42.61	3
42.62	14
42.63	10
42.64	5
42.65	8
42.66	10
42.67	6
42.68	11
42.69	9
42.7	7
42.71	10
42.72	4
42.73	14
42.74	12
42.75	10
42.76	10
42.77	7
42.78	12
42.79	13
42.8	9
42.81	13
42.82	9
42.83	8
42.84	11
42.85	6
42.86	12
42.87	8
42.88	11
42.89	10
42.9	13
42.91	9
42.92	9
42.93	10
42.94	10
42.95	5
42.96	8
42.97	5
42.98	9
42.99	11
43	6
43.01	10
43.02	12
43.03	12
43.04	8
43.05	10
43.06	5
43.07	14
43.08	7
43.09	7
43.1	18
43.11	14
43.12	13
43.13	12
43.14	11
43.15	10
43.16	12
43.17	9
43.18	20
43.19	8
43.2	6
43.21	12
43.22	9
43.23	6
43.24	7
43.25	13
43.26	16
43.27	9
43.28	17
43.29	5
43.3	12
43.31	11
43.32	9
43.33	10
43.34	6
43.35	8
43.36	13
43.37	11
43.38	9
43.39	12
43.4	9
43.41	16
43.42	12
43.43	13
43.44	11
43.45	14
43.46	11
43.47	6
43.48	10
43.49	11
43.5	8
43.51	9
43.52	10
43.53	11
43.54	13
43.55	11
43.56	10
43.57	18
43.58	14
43.59	6
43.6	13
43.61	16
43.62	10
43.63	12
43.64	10
43.65	13
43.66	11
43.67	13
43.68	6
43.69	8
43.7	12
43.71	11
43.72	11
43.73	9
43.74	12
43.75	11
43.76	7
43.77	6
43.78	14
43.79	20
43.8	7
43.81	11
43.82	6
43.83	5
43.84	12
43.85	9
43.86	13
43.87	11
43.88	9
43.89	11
43.9	7
43.91	9
43.92	12
43.93	21
43.94	14
43.95	9
43.96	13
43.97	12
43.98	9
43.99	3
44	12
44.01	14
44.02	8
44.03	12
44.04	17
44.05	11
44.06	7
44.07	14
44.08	4
44.09	11
44.1	16
44.11	11
44.12	12
44.13	10
44.14	13
44.15	13
44.16	13
44.17	11
44.18	12
44.19	14
44.2	8
44.21	9
44.22	10
44.23	14
44.24	19
44.25	13
44.26	12
44.27	14
44.28	9
44.29	6
44.3	7
44.31	6
44.32	17
44.33	14
44.34	9
44.35	15
44.36	14
44.37	15
44.38	9
44.39	16
44.4	15
44.41	12
44.42	15
44.43	21
44.44	15
44.45	27
44.46	18
44.47	21
44.48	9
44.49	17
44.5	15
44.51	7
44.52	11
44.53	14
44.54	8
44.55	15
44.56	12
44.57	6
44.58	18
44.59	16
44.6	12
44.61	14
44.62	11
44.63	9
44.64	9
44.65	11
44.66	13
44.67	13
44.68	16
44.69	10
44.7	12
44.71	17
44.72	15
44.73	17
44.74	11
44.75	12
44.76	21
44.77	22
44.78	24
44.79	17
44.8	22
44.81	13
44.82	15
44.83	18
44.84	13
44.85	16
44.86	23
44.87	23
44.88	21
44.89	18
44.9	15
44.91	9
44.92	18
44.93	16
44.94	15
44.95	11
44.96	20
44.97	16
44.98	13
44.99	7
45	17
45.01	17
45.02	16
45.03	11
45.04	23
45.05	10
45.06	19
45.07	16
45.08	14
45.09	17
45.1	12
45.11	16
45.12	22
45.13	29
45.14	18
45.15	21
45.16	25
45.17	21
45.18	14
45.19	21
45.2	21
45.21	22
45.22	19
45.23	20
45.24	21
45.25	18
45.26	13
45.27	18
45.28	21
45.29	28
45.3	23
45.31	24
45.32	19
45.33	25
45.34	34
45.35	22
45.36	18
45.37	16
45.38	15
45.39	35
45.4	19
45.41	14
45.42	31
45.43	28
45.44	31
45.45	22
45.46	26
45.47	25
45.48	28
45.49	30
45.5	28
45.51	27
45.52	36
45.53	29
45.54	28
45.55	24
45.56	32
45.57	30
45.58	30
45.59	30
45.6	43
45.61	42
45.62	28
45.63	28
45.64	39
45.65	28
45.66	39
45.67	27
45.68	34
45.69	34
45.7	36
45.71	37
45.72	40
45.73	42
45.74	46
45.75	30
45.76	42
45.77	23
45.78	42
45.79	38
45.8	28
45.81	43
45.82	37
45.83	45
45.84	38
45.85	30
45.86	39
45.87	35
45.88	50
45.89	58
45.9	36
45.91	56
45.92	68
45.93	53
45.94	63
45.95	60
45.96	55
45.97	64
45.98	54
45.99	85
46	89
46.01	79
46.02	82
46.03	80
46.04	89
46.05	87
46.06	82
46.07	88
46.08	94
46.09	99
46.1	83
46.11	134
46.12	140
46.13	148
46.14	177
46.15	168
46.16	178
46.17	187
46.18	215
46.19	218
46.2	283
46.21	270
46.22	339
46.23	344
46.24	385
46.25	400
46.26	458
46.27	538
46.28	635
46.29	707
46.3	831
46.31	943
46.32	1167
46.33	1453
46.34	1762
46.35	2170
46.36	2602
46.37	3282
46.38	4077
46.39	4998
46.4	6423
46.41	9429
46.42	17830
46.43	50679
46.44	173203
46.45	496353
46.46	1057830
46.47	1708610
46.48	1822880
46.49	1361270
46.5	693568
46.51	257340
46.52	57170
46.53	14695
46.54	6970
46.55	4177
46.56	2998
46.57	2178
46.58	1714
46.59	1423
46.6	1192
46.61	986
46.62	882
46.63	715
46.64	667
46.65	615
46.66	499
46.67	455
46.68	431
46.69	361
46.7	367
46.71	290
46.72	279
46.73	251
46.74	235
46.75	210
46.76	209
46.77	161
46.78	156
46.79	146
46.8	128
46.81	131
46.82	127
46.83	119
46.84	100
46.85	103
46.86	106
46.87	90
46.88	75
46.89	89
46.9	84
46.91	86
46.92	69
46.93	73
46.94	53
46.95	71
46.96	53
46.97	56
46.98	66
46.99	50
47	46
47.01	57
47.02	48
47.03	45
47.04	38
47.05	35
47.06	36
47.07	32
47.08	45
47.09	36
47.1	35
47.11	34
47.12	39
47.13	32
47.14	25
47.15	28
47.16	38
47.17	28
47.18	20
47.19	30
47.2	25
47.21	23
47.22	20
47.23	32
47.24	24
47.25	33
47.26	29
47.27	23
47.28	24
47.29	24
47.3	27
47.31	17
47.32	26
47.33	23
47.34	22
47.35	22
47.36	14
47.37	19
47.38	18
47.39	23
47.4	22
47.41	17
47.42	23
47.43	20
47.44	16
47.45	17
47.46	21
47.47	18
47.48	20
47.49	22
47.5	11
47.51	18
47.52	11
47.53	28
47.54	15
47.55	17
47.56	13
47.57	9
47.58	16
47.59	16
47.6	8
47.61	14
47.62	16
47.63	13
47.64	13
47.65	19
47.66	16
47.67	18
47.68	18
47.69	17
47.7	18
47.71	13
47.72	13
47.73	14
47.74	17
47.75	12
47.76	16
47.77	15
47.78	18
47.79	9
47.8	12
47.81	8
47.82	13
47.83	22
47.84	23
47.85	13
47.86	22
47.87	19
47.88	9
47.89	13
47.9	8
47.91	9
47.92	8
47.93	6
47.94	11
47.95	16
47.96	8
47.97	5
47.98	10
47.99	10
48	11
48.01	10
48.02	10
48.03	6
48.04	10
48.05	9
48.06	11
48.07	9
48.08	15
48.09	16
48.1	11
48.11	14
48.12	11
48.13	12
48.14	20
48.15	11
48.16	11
48.17	6
48.18	6
48.19	6
48.2	11
48.21	17
48.22	6
48.23	7
48.24	13
48.25	6
48.26	9
48.27	6
48.28	7
48.29	11
48.3	14
48.31	7
48.32	13
48.33	12
48.34	7
48.35	6
48.36	13
48.37	15
48.38	8
48.39	12
48.4	19
48.41	12
48.42	15
48.43	12
48.44	10
48.45	12
48.46	12
48.47	6
48.48	12
48.49	7
48.5	11
48.51	23
48.52	12
48.53	11
48.54	16
48.55	19
48.56	19
48.57	13
48.58	12
48.59	14
48.6	11
48.61	11
48.62	5
48.63	8
48.64	9
48.65	7
48.66	11
48.67	15
48.68	9
48.69	7
48.7	16
48.71	7
48.72	20
48.73	8
48.74	8
48.75	14
48.76	7
48.77	13
48.78	7
48.79	13
48.8	4
48.81	11
48.82	17
48.83	10
48.84	12
48.85	9
48.86	7
48.87	8
48.88	6
48.89	13
48.9	16
48.91	13
48.92	13
48.93	8
48.94	12
48.95	15
48.96	7
48.97	15
48.98	11
48.99	13
49	8
49.01	10
49.02	12
49.03	11
49.04	6
49.05	14
49.06	8
49.07	11
49.08	16
49.09	15
49.1	14
49.11	16
49.12	11
49.13	10
49.14	8
49.15	14
49.16	19
49.17	16
49.18	12
49.19	6
49.2	13
49.21	10
49.22	4
49.23	11
49.24	7
49.25	5
49.26	12
49.27	13
49.28	10
49.29	10
49.3	9
49.31	10
49.32	10
49.33	10
49.34	9
49.35	12
49.36	15
49.37	7
49.38	13
49.39	12
49.4	9
49.41	8
49.42	9
49.43	9
49.44	10
49.45	9
49.46	4
49.47	11
49.48	7
49.49	9
49.5	6
49.51	10
49.52	3
49.53	14
49.54	7
49.55	13
49.56	9
49.57	8
49.58	10
49.59	17
49.6	6
49.61	12
49.62	11
49.63	15
49.64	12
49.65	8
49.66	7
49.67	10
49.68	7
49.69	9
49.7	6
49.71	4
49.72	14
49.73	7
49.74	7
49.75	15
49.76	10
49.77	9
49.78	10
49.79	8
49.8	4
49.81	7
49.82	7
49.83	5
49.84	11
49.85	10
49.86	12
49.87	11
49.88	9
49.89	12
49.9	12
49.91	10
49.92	10
49.93	9
49.94	9
49.95	4
49.96	9
49.97	11
49.98	7
49.99	6
50	13
50.01	12
50.02	12
50.03	10
50.04	17
50.05	9
50.06	6
50.07	8
50.08	9
50.09	4
50.1	11
50.11	9
50.12	16
50.13	14
50.14	9
50.15	12
50.16	6
50.17	10
50.18	4
50.19	13
50.2	4
50.21	15
50.22	12
50.23	9
50.24	13
50.25	8
50.26	11
50.27	11
50.28	3
50.29	9
50.3	14
50.31	17
50.32	11
50.33	9
50.34	8
50.35	9
50.36	10
50.37	10
50.38	9
50.39	5
50.4	7
50.41	7
50.42	9
50.43	5
50.44	7
50.45	9
50.46	9
50.47	5
50.48	11
50.49	9
50.5	7
50.51	9
50.52	11
50.53	10
50.54	8
50.55	13
50.56	8
50.57	6
50.58	13
50.59	8
50.6	9
50.61	12
50.62	11
50.63	12
50.64	11
50.65	5
50.66	6
50.67	6
50.68	5
50.69	12
50.7	7
50.71	9
50.72	17
50.73	15
50.74	14
50.75	8
50.76	13
50.77	8
50.78	9
50.79	12
50.8	4
50.81	8
50.82	10
50.83	11
50.84	15
50.85	8
50.86	10
50.87	8
50.88	18
50.89	13
50.9	13
50.91	11
50.92	6
50.93	10
50.94	9
50.95	17
50.96	4
50.97	5
50.98	6
50.99	9
51	6
51.01	11
51.02	15
51.03	7
51.04	6
51.05	4
51.06	10
51.07	9
51.08	12
51.09	14
51.1	8
51.11	10
51.12	12
51.13	9
51.14	15
51.15	10
51.16	11
51.17	12
51.18	13
51.19	15
51.2	13
51.21	13
51.22	8
51.23	10
51.24	9
51.25	14
51.26	6
51.27	7
51.28	10
51.29	11
51.3	5
51.31	11
51.32	11
51.33	5
51.34	8
51.35	7
51.36	12
51.37	6
51.38	10
51.39	6
51.4	8
51.41	12
51.42	5
51.43	7
51.44	6
51.45	14
51.46	5
51.47	9
51.48	8
51.49	12
51.5	12
51.51	12
51.52	16
51.53	14
51.54	6
51.55	7
51.56	10
51.57	13
51.58	7
51.59	10
51.6	14
51.61	6
51.62	12
51.63	13
51.64	12
51.65	13
51.66	7
51.67	10
51.68	6
51.69	12
51.7	10
51.71	8
51.72	10
51.73	9
51.74	6
51.75	10
51.76	11
51.77	10
51.78	8
51.79	14
51.8	14
51.81	10
51.82	13
51.83	9
51.84	9
51.85	14
51.86	6
51.87	14
51.88	4
51.89	10
51.9	9
51.91	7
51.92	10
51.93	13
51.94	13
51.95	8
51.96	3
51.97	4
51.98	8
51.99	4
52	7
52.01	14
52.02	6
52.03	13
52.04	6
52.05	15
52.06	13
52.07	2
52.08	6
52.09	3
52.1	11
52.11	10
52.12	13
52.13	11
52.14	8
52.15	6
52.16	9
52.17	8
52.18	6
52.19	8
52.2	7
52.21	3
52.22	5
52.23	9
52.24	6
52.25	10
52.26	8
52.27	7
52.28	5
52.29	12
52.3	9
52.31	7
52.32	9
52.33	7
52.34	7
52.35	5
52.36	5
52.37	12
52.38	13
52.39	7
52.4	8
52.41	12
52.42	13
52.43	9
52.44	6
52.45	11
52.46	10
52.47	11
52.48	10
52.49	8
52.5	9
52.51	10
52.52	10
52.53	13
52.54	16
52.55	9
52.56	11
52.57	11
52.58	11
52.59	4
52.6	9
52.61	6
52.62	13
52.63	17
52.64	7
52.65	10
52.66	10
52.67	12
52.68	16
52.69	8
52.7	10
52.71	7
52.72	11
52.73	7
52.74	6
52.75	9
52.76	12
52.77	8
52.78	5
52.79	13
52.8	13
52.81	6
52.82	8
52.83	8
52.84	5
52.85	11
52.86	6
52.87	10
52.88	9
52.89	14
52.9	6
52.91	12
52.92	11
52.93	8
52.94	12
52.95	15
52.96	5
52.97	5
52.98	10
52.99	7
53	10
53.01	9
53.02	13
53.03	15
53.04	8
53.05	10
53.06	7
53.07	11
53.08	15
53.09	6
53.1	11
53.11	12
53.12	7
53.13	6
53.14	8
53.15	10
53.16	5
53.17	7
53.18	4
53.19	13
53.2	8
53.21	6
53.22	8
53.23	8
53.24	8
53.25	8
53.26	8
53.27	12
53.28	7
53.29	9
53.3	15
53.31	6
53.32	12
53.33	8
53.34	6
53.35	4
53.36	12
53.37	13
53.38	12
53.39	7
53.4	6
53.41	8
53.42	9
53.43	12
53.44	9
53.45	6
53.46	10
53.47	13
53.48	11
53.49	10
53.5	9
53.51	10
53.52	5
53.53	4
53.54	9
53.55	8
53.56	7
53.57	8
53.58	14
53.59	10
53.6	12
53.61	12
53.62	7
53.63	12
53.64	7
53.65	11
53.66	12
53.67	12
53.68	9
53.69	9
53.7	17
53.71	8
53.72	7
53.73	15
53.74	8
53.75	8
53.76	10
53.77	10
53.78	10
53.79	14
53.8	13
53.81	7
53.82	12
53.83	8
53.84	10
53.85	10
53.86	11
53.87	17
53.88	18
53.89	12
53.9	7
53.91	10
53.92	13
53.93	9
53.94	6
53.95	9
53.96	14
53.97	9
53.98	10
53.99	7
54	9
54.01	6
54.02	10
54.03	9
54.04	10
54.05	9
54.06	11
54.07	8
54.08	12
54.09	15
54.1	14
54.11	16
54.12	13
54.13	15
54.14	18
54.15	19
54.16	15
54.17	7
54.18	8
54.19	14
54.2	19
54.21	16
54.22	13
54.23	7
54.24	8
54.25	14
54.26	15
54.27	15
54.28	14
54.29	14
54.3	15
54.31	21
54.32	14
54.33	19
54.34	16
54.35	20
54.36	20
54.37	15
54.38	20
54.39	17
54.4	19
54.41	15
54.42	18
54.43	23
54.44	16
54.45	16
54.46	25
54.47	28
54.48	29
54.49	24
54.5	36
54.51	41
54.52	33
54.53	33
54.54	41
54.55	42
54.56	47
54.57	51
54.58	56
54.59	54
54.6	64
54.61	87
54.62	85
54.63	78
54.64	108
54.65	131
54.66	153
54.67	206
54.68	178
54.69	211
54.7	235
54.71	277
54.72	294
54.73	326
54.74	313
54.75	326
54.76	314
54.77	330
54.78	302
54.79	250
54.8	250
54.81	231
54.82	225
54.83	218
54.84	175
54.85	154
54.86	172
54.87	116
54.88	124
54.89	110
54.9	117
54.91	83
54.92	84
54.93	74
54.94	67
54.95	64
54.96	55
54.97	59
54.98	60
54.99	47
55	53
55.01	47
55.02	40
55.03	58
55.04	37
55.05	33
55.06	39
55.07	32
55.08	31
55.09	28
55.1	27
55.11	30
55.12	24
55.13	24
55.14	17
55.15	29
55.16	26
55.17	16
55.18	19
55.19	14
55.2	20
55.21	20
55.22	15
55.23	21
55.24	18
55.25	12
55.26	17
55.27	14
55.28	17
55.29	28
55.3	12
55.31	13
55.32	12
55.33	14
55.34	10
55.35	9
55.36	12
55.37	19
55.38	16
55.39	16
55.4	11
55.41	19
55.42	14
55.43	15
55.44	13
55.45	15
55.46	6
55.47	10
55.48	16
55.49	13
55.5	20
55.51	15
55.52	14
55.53	6
55.54	8
55.55	16
55.56	10
55.57	9
55.58	7
55.59	6
55.6	12
55.61	11
55.62	6
55.63	7
55.64	10
55.65	7
55.66	8
55.67	5
55.68	19
55.69	9
55.7	8
55.71	12
55.72	8
55.73	8
55.74	9
55.75	14
55.76	12
55.77	10
55.78	10
55.79	8
55.8	6
55.81	9
55.82	11
55.83	11
55.84	11
55.85	7
55.86	10
55.87	13
55.88	12
55.89	10
55.9	10
55.91	9
55.92	9
55.93	9
55.94	4
55.95	13
55.96	8
55.97	13
55.98	10
55.99	13
56	4
56.01	15
56.02	14
56.03	9
56.04	12
56.05	10
56.06	5
56.07	8
56.08	7
56.09	8
56.1	10
56.11	11
56.12	6
56.13	10
56.14	8
56.15	4
56.16	12
56.17	9
56.18	11
56.19	12
56.2	9
56.21	12
56.22	8
56.23	14
56.24	15
56.25	9
56.26	9
56.27	6
56.28	12
56.29	9
56.3	9
56.31	10
56.32	9
56.33	8
56.34	8
56.35	9
56.36	8
56.37	13
56.38	12
56.39	9
56.4	9
56.41	10
56.42	9
56.43	10
56.44	14
56.45	12
56.46	8
56.47	10
56.48	8
56.49	7
56.5	9
56.51	10
56.52	5
56.53	10
56.54	11
56.55	7
56.56	19
56.57	11
56.58	12
56.59	8
56.6	18
56.61	10
56.62	10
56.63	5
56.64	12
56.65	9
56.66	8
56.67	9
56.68	14
56.69	9
56.7	11
56.71	7
56.72	9
56.73	9
56.74	7
56.75	6
56.76	12
56.77	11
56.78	5
56.79	7
56.8	5
56.81	4
56.82	10
56.83	10
56.84	6
56.85	8
56.86	7
56.87	6
56.88	7
56.89	6
56.9	8
56.91	7
56.92	5
56.93	11
56.94	9
56.95	8
56.96	6
56.97	10
56.98	10
56.99	15
57	11
57.01	7
57.02	9
57.03	8
57.04	12
57.05	14
57.06	10
57.07	9
57.08	10
57.09	10
57.1	9
57.11	7
57.12	7
57.13	13
57.14	11
57.15	8
57.16	9
57.17	10
57.18	11
57.19	6
57.2	5
57.21	12
57.22	10
57.23	6
57.24	14
57.25	6
57.26	7
57.27	5
57.28	9
57.29	4
57.3	5
57.31	13
57.32	8
57.33	8
57.34	6
57.35	3
57.36	11
57.37	8
57.38	9
57.39	15
57.4	8
57.41	5
57.42	10
57.43	3
57.44	9
57.45	10
57.46	7
57.47	9
57.48	5
57.49	8
57.5	9
57.51	11
57.52	9
57.53	14
57.54	10
57.55	10
57.56	5
57.57	11
57.58	7
57.59	8
57.6	12
57.61	5
57.62	4
57.63	9
57.64	10
57.65	7
57.66	14
57.67	15
57.68	6
57.69	5
57.7	9
57.71	8
57.72	7
57.73	4
57.74	9
57.75	4
57.76	10
57.77	10
57.78	10
57.79	14
57.8	6
57.81	2
57.82	7
57.83	10
57.84	12
57.85	9
57.86	6
57.87	8
57.88	14
57.89	8
57.9	8
57.91	10
57.92	12
57.93	10
57.94	9
57.95	9
57.96	9
57.97	6
57.98	4
57.99	11
58	6
58.01	8
58.02	14
58.03	5
58.04	10
58.05	3
58.06	8
58.07	7
58.08	11
58.09	8
58.1	7
58.11	13
58.12	14
58.13	6
58.14	8
58.15	5
58.16	9
58.17	11
58.18	5
58.19	16
58.2	7
58.21	11
58.22	5
58.23	14
58.24	11
58.25	9
58.26	7
58.27	7
58.28	9
58.29	11
58.3	6
58.31	7
58.32	9
58.33	7
58.34	5
58.35	10
58.36	12
58.37	17
58.38	7
58.39	9
58.4	5
58.41	10
58.42	7
58.43	10
58.44	8
58.45	11
58.46	8
58.47	8
58.48	9
58.49	12
58.5	10
58.51	7
58.52	9
58.53	9
58.54	14
58.55	8
58.56	12
58.57	12
58.58	10
58.59	7
58.6	8
58.61	8
58.62	13
58.63	8
58.64	5
58.65	12
58.66	9
58.67	12
58.68	11
58.69	11
58.7	7
58.71	8
58.72	10
58.73	10
58.74	6
58.75	13
58.76	5
58.77	15
58.78	12
58.79	10
58.8	9
58.81	7
58.82	9
58.83	2
58.84	8
58.85	8
58.86	8
58.87	3
58.88	8
58.89	11
58.9	12
58.91	6
58.92	7
58.93	7
58.94	11
58.95	10
58.96	12
58.97	13
58.98	6
58.99	10
59	4
59.01	11
59.02	10
59.03	10
59.04	7
59.05	10
59.06	7
59.07	7
59.08	5
59.09	7
59.1	11
59.11	8
59.12	13
59.13	6
59.14	9
59.15	9
59.16	13
59.17	9
59.18	7
59.19	14
59.2	10
59.21	11
59.22	10
59.23	10
59.24	8
59.25	7
59.26	10
59.27	7
59.28	13
59.29	8
59.3	2
59.31	16
59.32	11
59.33	5
59.34	9
59.35	8
59.36	7
59.37	9
59.38	9
59.39	12
59.4	10
59.41	9
59.42	8
59.43	9
59.44	10
59.45	8
59.46	10
59.47	4
59.48	8
59.49	6
59.5	6
59.51	1
59.52	10
59.53	3
59.54	8
59.55	8
59.56	7
59.57	11
59.58	13
59.59	10
59.6	9
59.61	4
59.62	5
59.63	7
59.64	9
59.65	6
59.66	10
59.67	9
59.68	9
59.69	10
59.7	9
59.71	7
59.72	8
59.73	9
59.74	12
59.75	7
59.76	13
59.77	5
59.78	7
59.79	12
59.8	11
59.81	6
59.82	12
59.83	18
59.84	9
59.85	7
59.86	6
59.87	8
59.88	9
59.89	8
59.9	12
59.91	7
59.92	9
59.93	6
59.94	5
59.95	14
59.96	11
59.97	4
59.98	10
59.99	6
60	7
60.01	3
60.02	10
60.03	15
60.04	12
60.05	8
60.06	5
60.07	5
60.08	9
60.09	9
60.1	7
60.11	6
60.12	9
60.13	6
60.14	8
60.15	10
60.16	4
60.17	6
60.18	3
60.19	10
60.2	6
60.21	9
60.22	5
60.23	14
60.24	7
60.25	6
60.26	6
60.27	14
60.28	6
60.29	8
60.3	6
60.31	7
60.32	9
60.33	19
60.34	10
60.35	7
60.36	6
60.37	7
60.38	11
60.39	10
60.4	10
60.41	15
60.42	6
60.43	14
60.44	6
60.45	5
60.46	10
60.47	9
60.48	11
60.49	6
60.5	12
60.51	2
60.52	7
60.53	10
60.54	12
60.55	7
60.56	10
60.57	4
60.58	8
60.59	5
60.6	8
60.61	11
60.62	7
60.63	4
60.64	8
60.65	9
60.66	9
60.67	12
60.68	6
60.69	3
60.7	11
60.71	6
60.72	7
60.73	6
60.74	7
60.75	9
60.76	8
60.77	8
60.78	8
60.79	5
60.8	9
60.81	10
60.82	5
60.83	7
60.84	11
60.85	12
60.86	10
60.87	7
60.88	7
60.89	10
60.9	11
60.91	10
60.92	10
60.93	7
60.94	9
60.95	8
60.96	8
60.97	7
60.98	14
60.99	9
61	8
61.01	8
61.02	6
61.03	12
61.04	12
61.05	11
61.06	10
61.07	8
61.08	7
61.09	8
61.1	14
61.11	7
61.12	12
61.13	8
61.14	11
61.15	5
61.16	14
61.17	9
61.18	6
61.19	8
61.2	12
61.21	16
61.22	15
61.23	8
61.24	5
61.25	8
61.26	6
61.27	10
61.28	9
61.29	11
61.3	10
61.31	8
61.32	9
61.33	10
61.34	10
61.35	8
61.36	7
61.37	9
61.38	8
61.39	9
61.4	12
61.41	8
61.42	6
61.43	11
61.44	7
61.45	11
61.46	7
61.47	11
61.48	7
61.49	15
61.5	5
61.51	7
61.52	11
61.53	10
61.54	6
61.55	15
61.56	4
61.57	8
61.58	9
61.59	8
61.6	10
61.61	4
61.62	9
61.63	12
61.64	8
61.65	11
61.66	9
61.67	8
61.68	8
61.69	11
61.7	10
61.71	4
61.72	5
61.73	6
61.74	9
61.75	8
61.76	3
61.77	6
61.78	4
61.79	12
61.8	10
61.81	7
61.82	7
61.83	11
61.84	8
61.85	9
61.86	6
61.87	7
61.88	6
61.89	5
61.9	7
61.91	9
61.92	10
61.93	9
61.94	6
61.95	14
61.96	10
61.97	11
61.98	4
61.99	8
62	8
62.01	13
62.02	11
62.03	12
62.04	6
62.05	12
62.06	7
62.07	6
62.08	7
62.09	8
62.1	8
62.11	10
62.12	8
62.13	14
62.14	5
62.15	5
62.16	6
62.17	8
62.18	9
62.19	17
62.2	6
62.21	8
62.22	5
62.23	6
62.24	12
62.25	12
62.26	13
62.27	8
62.28	11
62.29	10
62.3	10
62.31	3
62.32	9
62.33	8
62.34	10
62.35	10
62.36	5
62.37	6
62.38	9
62.39	9
62.4	9
62.41	4
62.42	8
62.43	6
62.44	13
62.45	6
62.46	6
62.47	8
62.48	6
62.49	9
62.5	5
62.51	10
62.52	5
62.53	7
62.54	7
62.55	9
62.56	11
62.57	7
62.58	6
62.59	10
62.6	7
62.61	8
62.62	7
62.63	2
62.64	5
62.65	16
62.66	6
62.67	6
62.68	8
62.69	10
62.7	10
62.71	10
62.72	15
62.73	8
62.74	8
62.75	6
62.76	7
62.77	13
62.78	6
62.79	10
62.8	7
62.81	5
62.82	12
62.83	12
62.84	4
62.85	9
62.86	10
62.87	13
62.88	4
62.89	5
62.9	9
62.91	10
62.92	12
62.93	6
62.94	6
62.95	12
62.96	8
62.97	13
62.98	7
62.99	7
63	6
63.01	6
63.02	5
63.03	3
63.04	11
63.05	8
63.06	4
63.07	6
63.08	13
63.09	14
63.1	11
63.11	8
63.12	15
63.13	11
63.14	11
63.15	14
63.16	9
63.17	9
63.18	8
63.19	7
63.2	16
63.21	15
63.22	10
63.23	9
63.24	10
63.25	15
63.26	16
63.27	9
63.28	10
63.29	16
63.3	12
63.31	13
63.32	12
63.33	15
63.34	9
63.35	16
63.36	17
63.37	14
63.38	28
63.39	14
63.4	19
63.41	20
63.42	14
63.43	21
63.44	16
63.45	18
63.46	16
63.47	19
63.48	15
63.49	10
63.5	13
63.51	10
63.52	16
63.53	15
63.54	15
63.55	7
63.56	20
63.57	10
63.58	12
63.59	13
63.6	18
63.61	13
63.62	9
63.63	10
63.64	8
63.65	12
63.66	15
63.67	15
63.68	10
63.69	12
63.7	9
63.71	10
63.72	11
63.73	14
63.74	8
63.75	12
63.76	9
63.77	9
63.78	9
63.79	14
63.8	4
63.81	11
63.82	7
63.83	9
63.84	7
63.85	12
63.86	12
63.87	8
63.88	8
63.89	10
63.9	8
63.91	8
63.92	12
63.93	13
63.94	10
63.95	4
63.96	8
63.97	16
63.98	13
63.99	6
64	14
64.01	10
64.02	7
64.03	5
64.04	11
64.05	4
64.06	13
64.07	3
64.08	5
64.09	8
64.1	6
64.11	6
64.12	13
64.13	6
64.14	3
64.15	9
64.16	11
64.17	7
64.18	8
64.19	9
64.2	7
64.21	8
64.22	4
64.23	7
64.24	9
64.25	13
64.26	6
64.27	6
64.28	5
64.29	9
64.3	4
64.31	5
64.32	10
64.33	6
64.34	10
64.35	8
64.36	9
64.37	7
64.38	7
64.39	6
64.4	16
64.41	11
64.42	9
64.43	8
64.44	5
64.45	6
64.46	10
64.47	9
64.48	5
64.49	5
64.5	11
64.51	10
64.52	11
64.53	12
64.54	7
64.55	7
64.56	4
64.57	9
64.58	8
64.59	7
64.6	7
64.61	7
64.62	9
64.63	7
64.64	9
64.65	9
64.66	6
64.67	14
64.68	5
64.69	8
64.7	9
64.71	12
64.72	8
64.73	6
64.74	8
64.75	4
64.76	8
64.77	10
64.78	6
64.79	11
64.8	2
64.81	4
64.82	10
64.83	7
64.84	7
64.85	9
64.86	10
64.87	16
64.88	6
64.89	6
64.9	9
64.91	7
64.92	7
64.93	8
64.94	7
64.95	9
64.96	10
64.97	9
64.98	10
64.99	9
65	11
65.01	6
65.02	5
65.03	7
65.04	7
65.05	11
65.06	6
65.07	7
65.08	6
65.09	11
65.1	11
65.11	5
65.12	8
65.13	9
65.14	5
65.15	7
65.16	9
65.17	6
65.18	7
65.19	12
65.2	9
65.21	6
65.22	9
65.23	10
65.24	8
65.25	11
65.26	5
65.27	5
65.28	2
65.29	4
65.3	12
65.31	12
65.32	5
65.33	6
65.34	10
65.35	8
65.36	8
65.37	15
65.38	7
65.39	9
65.4	6
65.41	6
65.42	6
65.43	8
65.44	7
65.45	10
65.46	7
65.47	9
65.48	6
65.49	11
65.5	11
65.51	4
65.52	8
65.53	4
65.54	8
65.55	10
65.56	11
65.57	13
65.58	6
65.59	11
65.6	8
65.61	9
65.62	5
65.63	15
65.64	11
65.65	16
65.66	9
65.67	22
65.68	5
65.69	10
65.7	7
65.71	7
65.72	5
65.73	5
65.74	5
65.75	9
65.76	14
65.77	6
65.78	8
65.79	14
65.8	10
65.81	4
65.82	6
65.83	5
65.84	11
65.85	3
65.86	4
65.87	12
65.88	10
65.89	7
65.9	3
65.91	9
65.92	2
65.93	11
65.94	7
65.95	11
65.96	9
65.97	9
65.98	5
65.99	10
66	8
66.01	5
66.02	13
66.03	7
66.04	8
66.05	9
66.06	7
66.07	5
66.08	9
66.09	7
66.1	13
66.11	10
66.12	5
66.13	10
66.14	12
66.15	8
66.16	6
66.17	3
66.18	6
66.19	10
66.2	12
66.21	3
66.22	10
66.23	10
66.24	9
66.25	7
66.26	10
66.27	9
66.28	7
66.29	6
66.3	12
66.31	2
66.32	12
66.33	7
66.34	11
66.35	6
66.36	7
66.37	10
66.38	8
66.39	10
66.4	11
66.41	12
66.42	6
66.43	7
66.44	9
66.45	11
66.46	11
66.47	8
66.48	12
66.49	5
66.5	9
66.51	9
66.52	13
66.53	6
66.54	8
66.55	8
66.56	6
66.57	6
66.58	9
66.59	8
66.6	14
66.61	9
66.62	7
66.63	9
66.64	3
66.65	12
66.66	9
66.67	14
66.68	7
66.69	14
66.7	6
66.71	7
66.72	4
66.73	5
66.74	4
66.75	11
66.76	6
66.77	5
66.78	7
66.79	11
66.8	6
66.81	2
66.82	5
66.83	11
66.84	15
66.85	10
66.86	6
66.87	3
66.88	7
66.89	6
66.9	6
66.91	10
66.92	7
66.93	6
66.94	12
66.95	6
66.96	15
66.97	5
66.98	13
66.99	4
67	7
67.01	9
67.02	8
67.03	12
67.04	12
67.05	9
67.06	7
67.07	4
67.08	4
67.09	8
67.1	6
67.11	9
67.12	11
67.13	8
67.14	13
67.15	9
67.16	8
67.17	7
67.18	9
67.19	7
67.2	8
67.21	9
67.22	9
67.23	5
67.24	6
67.25	9
67.26	10
67.27	10
67.28	6
67.29	5
67.3	5
67.31	9
67.32	13
67.33	14
67.34	5
67.35	6
67.36	6
67.37	6
67.38	10
67.39	7
67.4	7
67.41	5
67.42	7
67.43	8
67.44	9
67.45	8
67.46	11
67.47	5
67.48	6
67.49	12
67.5	10
67.51	8
67.52	10
67.53	8
67.54	6
67.55	9
67.56	9
67.57	7
67.58	12
67.59	12
67.6	11
67.61	7
67.62	6
67.63	9
67.64	8
67.65	12
67.66	5
67.67	11
67.68	5
67.69	6
67.7	8
67.71	12
67.72	6
67.73	9
67.74	7
67.75	6
67.76	10
67.77	5
67.78	10
67.79	13
67.8	11
67.81	18
67.82	14
67.83	7
67.84	5
67.85	14
67.86	6
67.87	7
67.88	7
67.89	7
67.9	7
67.91	9
67.92	10
67.93	8
67.94	9
67.95	10
67.96	6
67.97	7
67.98	9
67.99	10
68	7
68.01	10
68.02	2
68.03	7
68.04	11
68.05	8
68.06	9
68.07	12
68.08	8
68.09	7
68.1	12
68.11	9
68.12	7
68.13	11
68.14	10
68.15	11
68.16	6
68.17	7
68.18	9
68.19	9
68.2	7
68.21	14
68.22	7
68.23	10
68.24	7
68.25	8
68.26	7
68.27	10
68.28	6
68.29	5
68.3	4
68.31	12
68.32	7
68.33	3
68.34	8
68.35	5
68.36	11
68.37	13
68.38	8
68.39	10
68.4	6
68.41	4
68.42	9
68.43	7
68.44	11
68.45	6
68.46	6
68.47	13
68.48	15
68.49	4
68.5	8
68.51	5
68.52	9
68.53	10
68.54	3
68.55	6
68.56	8
68.57	6
68.58	7
68.59	13
68.6	8
68.61	7
68.62	8
68.63	9
68.64	4
68.65	10
68.66	6
68.67	10
68.68	6
68.69	9
68.7	12
68.71	6
68.72	10
68.73	11
68.74	12
68.75	6
68.76	13
68.77	6
68.78	6
68.79	4
68.8	4
68.81	7
68.82	10
68.83	8
68.84	18
68.85	15
68.86	7
68.87	7
68.88	8
68.89	7
68.9	5
68.91	11
68.92	6
68.93	9
68.94	12
68.95	11
68.96	8
68.97	7
68.98	9
68.99	5
69	7
69.01	7
69.02	6
69.03	11
69.04	9
69.05	12
69.06	12
69.07	8
69.08	14
69.09	2
69.1	12
69.11	9
69.12	10
69.13	4
69.14	10
69.15	16
69.16	7
69.17	4
69.18	7
69.19	6
69.2	9
69.21	4
69.22	6
69.23	6
69.24	9
69.25	4
69.26	10
69.27	11
69.28	6
69.29	6
69.3	5
69.31	7
69.32	8
69.33	2
69.34	4
69.35	11
69.36	5
69.37	9
69.38	11
69.39	6
69.4	8
69.41	8
69.42	7
69.43	6
69.44	8
69.45	4
69.46	9
69.47	11
69.48	11
69.49	12
69.5	4
69.51	14
69.52	9
69.53	8
69.54	8
69.55	8
69.56	9
69.57	4
69.58	5
69.59	15
69.6	8
69.61	8
69.62	13
69.63	15
69.64	12
69.65	9
69.66	9
69.67	5
69.68	4
69.69	4
69.7	8
69.71	12
69.72	7
69.73	7
69.74	6
69.75	11
69.76	4
69.77	6
69.78	11
69.79	17
69.8	9
69.81	13
69.82	10
69.83	6
69.84	11
69.85	6
69.86	12
69.87	9
69.88	7
69.89	6
69.9	5
69.91	12
69.92	10
69.93	6
69.94	9
69.95	14
69.96	4
69.97	6
69.98	5
69.99	3
70	3
70.01	6
70.02	6
70.03	13
70.04	2
70.05	8
70.06	4
70.07	11
70.08	8
70.09	6
70.1	12
70.11	10
70.12	9
70.13	10
70.14	8
70.15	9
70.16	11
70.17	6
70.18	8
70.19	11
70.2	10
70.21	7
70.22	12
70.23	8
70.24	6
70.25	5
70.26	9
70.27	10
70.28	5
70.29	7
70.3	9
70.31	9
70.32	5
70.33	8
70.34	9
70.35	7
70.36	10
70.37	10
70.38	10
70.39	7
70.4	9
70.41	8
70.42	13
70.43	6
70.44	9
70.45	9
70.46	9
70.47	10
70.48	8
70.49	9
70.5	16
70.51	14
70.52	5
70.53	14
70.54	9
70.55	9
70.56	8
70.57	7
70.58	8
70.59	4
70.6	8
70.61	6
70.62	5
70.63	6
70.64	7
70.65	11
70.66	12
70.67	8
70.68	7
70.69	13
70.7	10
70.71	10
70.72	7
70.73	11
70.74	11
70.75	7
70.76	11
70.77	12
70.78	11
70.79	11
70.8	14
70.81	16
70.82	6
70.83	12
70.84	9
70.85	12
70.86	11
70.87	7
70.88	14
70.89	7
70.9	13
70.91	13
70.92	9
70.93	8
70.94	14
70.95	10
70.96	10
70.97	7
70.98	9
70.99	9
71	16
71.01	10
71.02	8
71.03	10
71.04	13
71.05	12
71.06	10
71.07	11
71.08	11
71.09	15
71.1	6
71.11	6
71.12	10
71.13	7
71.14	10
71.15	11
71.16	8
71.17	8
71.18	7
71.19	17
71.2	13
71.21	10
71.22	6
71.23	12
71.24	9
71.25	9
71.26	14
71.27	11
71.28	7
71.29	11
71.3	12
71.31	10
71.32	9
71.33	16
71.34	6
71.35	9
71.36	9
71.37	14
71.38	12
71.39	18
71.4	10
71.41	8
71.42	3
71.43	11
71.44	11
71.45	6
71.46	13
71.47	17
71.48	12
71.49	9
71.5	4
71.51	19
71.52	7
71.53	12
71.54	16
71.55	11
71.56	10
71.57	15
71.58	7
71.59	19
71.6	12
71.61	6
71.62	16
71.63	1
71.64	11
71.65	10
71.66	11
71.67	10
71.68	10
71.69	8
71.7	13
71.71	8
71.72	10
71.73	8
71.74	4
71.75	13
71.76	7
71.77	12
71.78	9
71.79	10
71.8	7
71.81	12
71.82	6
71.83	9
71.84	11
71.85	12
71.86	13
71.87	12
71.88	10
71.89	11
71.9	13
71.91	9
71.92	11
71.93	9
71.94	10
71.95	10
71.96	10
71.97	13
71.98	13
71.99	4
72	7
72.01	10
72.02	15
72.03	7
72.04	11
72.05	23
72.06	11
72.07	15
72.08	18
72.09	12
72.1	13
72.11	20
72.12	11
72.13	14
72.14	12
72.15	17
72.16	14
72.17	15
72.18	19
72.19	26
72.2	15
72.21	18
72.22	13
72.23	16
72.24	18
72.25	21
72.26	25
72.27	19
72.28	27
72.29	21
72.3	25
72.31	23
72.32	28
72.33	30
72.34	31
72.35	36
72.36	43
72.37	51
72.38	48
72.39	54
72.4	56
72.41	62
72.42	74
72.43	77
72.44	91
72.45	97
72.46	106
72.47	125
72.48	204
72.49	317
72.5	547
72.51	1274
72.52	2680
72.53	5996
72.54	14398
72.55	31016
72.56	50894
72.57	57072
72.58	48713
72.59	30858
72.6	12853
72.61	3396
72.62	639
72.63	182
72.64	102
72.65	67
72.66	66
72.67	48
72.68	42
72.69	33
72.7	37
72.71	42
72.72	27
72.73	33
72.74	29
72.75	22
72.76	32
72.77	20
72.78	19
72.79	17
72.8	21
72.81	18
72.82	23
72.83	14
72.84	15
72.85	18
72.86	20
72.87	17
72.88	10
72.89	24
72.9	23
72.91	12
72.92	15
72.93	20
72.94	18
72.95	22
72.96	10
72.97	7
72.98	20
72.99	13
73	14
73.01	16
73.02	20
73.03	10
73.04	15
73.05	14
73.06	6
73.07	12
73.08	14
73.09	8
73.1	9
73.11	10
73.12	16
73.13	10
73.14	11
73.15	12
73.16	7
73.17	14
73.18	10
73.19	11
73.2	14
73.21	9
73.22	9
73.23	11
73.24	8
73.25	5
73.26	7
73.27	11
73.28	15
73.29	9
73.3	10
73.31	6
73.32	15
73.33	4
73.34	10
73.35	13
73.36	10
73.37	7
73.38	13
73.39	13
73.4	9
73.41	12
73.42	12
73.43	10
73.44	10
73.45	11
73.46	10
73.47	13
73.48	6
73.49	7
73.5	7
73.51	4
73.52	11
73.53	16
73.54	12
73.55	11
73.56	7
73.57	10
73.58	7
73.59	9
73.6	7
73.61	13
73.62	9
73.63	8
73.64	4
73.65	5
73.66	14
73.67	7
73.68	5
73.69	8
73.7	7
73.71	15
73.72	17
73.73	7
73.74	11
73.75	11
73.76	6
73.77	5
73.78	8
73.79	12
73.8	13
73.81	7
73.82	8
73.83	9
73.84	12
73.85	11
73.86	14
73.87	9
73.88	10
73.89	9
73.9	9
73.91	9
73.92	7
73.93	6
73.94	14
73.95	8
73.96	8
73.97	7
73.98	9
73.99	13
74	7
74.01	7
74.02	8
74.03	7
74.04	9
74.05	10
74.06	9
74.07	14
74.08	8
74.09	10
74.1	3
74.11	8
74.12	12
74.13	7
74.14	13
74.15	11
74.16	6
74.17	8
74.18	8
74.19	4
74.2	11
74.21	8
74.22	12
74.23	13
74.24	6
74.25	6
74.26	3
74.27	6
74.28	4
74.29	15
74.3	9
74.31	12
74.32	9
74.33	13
74.34	6
74.35	10
74.36	8
74.37	7
74.38	13
74.39	10
74.4	10
74.41	10
74.42	8
74.43	12
74.44	6
74.45	11
74.46	8
74.47	9
74.48	11
74.49	11
74.5	7
74.51	9
74.52	7
74.53	9
74.54	6
74.55	13
74.56	6
74.57	9
74.58	7
74.59	11
74.6	10
74.61	8
74.62	5
74.63	11
74.64	14
74.65	8
74.66	9
74.67	6
74.68	10
74.69	10
74.7	8
74.71	9
74.72	8
74.73	3
74.74	9
74.75	10
74.76	11
74.77	3
74.78	2
74.79	12
74.8	7
74.81	5
74.82	10
74.83	6
74.84	16
74.85	3
74.86	5
74.87	10
74.88	8
74.89	8
74.9	6
74.91	6
74.92	12
74.93	9
74.94	8
74.95	6
74.96	5
74.97	9
74.98	10
74.99	7
75	10
75.01	6
75.02	9
75.03	8
75.04	11
75.05	8
75.06	11
75.07	11
75.08	16
75.09	7
75.1	7
75.11	6
75.12	8
75.13	11
75.14	10
75.15	9
75.16	11
75.17	9
75.18	3
75.19	9
75.2	9
75.21	9
75.22	8
75.23	9
75.24	6
75.25	4
75.26	15
75.27	7
75.28	6
75.29	13
75.3	6
75.31	6
75.32	5
75.33	10
75.34	5
75.35	10
75.36	8
75.37	14
75.38	8
75.39	8
75.4	5
75.41	7
75.42	7
75.43	9
75.44	8
75.45	12
75.46	8
75.47	7
75.48	10
75.49	17
75.5	0
75.51	9
75.52	12
75.53	9
75.54	7
75.55	7
75.56	7
75.57	10
75.58	12
75.59	9
75.6	4
75.61	5
75.62	9
75.63	10
75.64	10
75.65	8
75.66	6
75.67	10
75.68	12
75.69	5
75.7	7
75.71	8
75.72	5
75.73	10
75.74	7
75.75	7
75.76	8
75.77	6
75.78	6
75.79	12
75.8	13
75.81	14
75.82	9
75.83	5
75.84	6
75.85	10
75.86	15
75.87	7
75.88	3
75.89	6
75.9	9
75.91	5
75.92	5
75.93	8
75.94	9
75.95	16
75.96	2
75.97	7
75.98	8
75.99	7
76	3
76.01	6
76.02	8
76.03	4
76.04	5
76.05	6
76.06	5
76.07	8
76.08	13
76.09	10
76.1	7
76.11	8
76.12	6
76.13	6
76.14	12
76.15	6
76.16	11
76.17	7
76.18	8
76.19	12
76.2	4
76.21	11
76.22	9
76.23	11
76.24	3
76.25	12
76.26	10
76.27	8
76.28	13
76.29	7
76.3	7
76.31	4
76.32	9
76.33	7
76.34	10
76.35	12
76.36	8
76.37	6
76.38	6
76.39	6
76.4	10
76.41	7
76.42	8
76.43	6
76.44	8
76.45	9
76.46	10
76.47	7
76.48	7
76.49	5
76.5	10
76.51	11
76.52	7
76.53	7
76.54	11
76.55	12
76.56	11
76.57	11
76.58	8
76.59	16
76.6	10
76.61	9
76.62	4
76.63	3
76.64	8
76.65	9
76.66	4
76.67	10
76.68	8
76.69	9
76.7	7
76.71	8
76.72	5
76.73	10
76.74	10
76.75	7
76.76	10
76.77	5
76.78	10
76.79	5
76.8	7
76.81	6
76.82	9
76.83	7
76.84	9
76.85	8
76.86	9
76.87	5
76.88	12
76.89	9
76.9	9
76.91	6
76.92	13
76.93	9
76.94	8
76.95	6
76.96	11
76.97	6
76.98	12
76.99	8
77	5
77.01	12
77.02	6
77.03	12
77.04	9
77.05	9
77.06	3
77.07	5
77.08	9
77.09	8
77.1	12
77.11	11
77.12	9
77.13	9
77.14	11
77.15	9
77.16	7
77.17	5
77.18	9
77.19	14
77.2	10
77.21	5
77.22	7
77.23	9
77.24	14
77.25	9
77.26	7
77.27	15
77.28	5
77.29	10
77.3	8
77.31	12
77.32	11
77.33	10
77.34	6
77.35	8
77.36	8
77.37	12
77.38	11
77.39	3
77.4	8
77.41	9
77.42	10
77.43	14
77.44	8
77.45	7
77.46	10
77.47	12
77.48	7
77.49	8
77.5	6
77.51	9
77.52	10
77.53	8
77.54	5
77.55	9
77.56	11
77.57	15
77.58	8
77.59	8
77.6	9
77.61	9
77.62	8
77.63	9
77.64	10
77.65	14
77.66	13
77.67	11
77.68	7
77.69	7
77.7	3
77.71	10
77.72	6
77.73	10
77.74	8
77.75	8
77.76	7
77.77	3
77.78	8
77.79	13
77.8	5
77.81	7
77.82	6
77.83	5
77.84	9
77.85	9
77.86	6
77.87	8
77.88	7
77.89	6
77.9	6
77.91	6
77.92	11
77.93	15
77.94	2
77.95	10
77.96	5
77.97	7
77.98	8
77.99	4
78	7
78.01	8
78.02	6
78.03	9
78.04	4
78.05	6
78.06	9
78.07	6
78.08	9
78.09	9
78.1	11
78.11	8
78.12	4
78.13	7
78.14	12
78.15	10
78.16	7
78.17	8
78.18	10
78.19	5
78.2	11
78.21	10
78.22	6
78.23	13
78.24	9
78.25	6
78.26	7
78.27	7
78.28	9
78.29	8
78.3	10
78.31	10
78.32	3
78.33	6
78.34	10
78.35	9
78.36	7
78.37	5
78.38	5
78.39	8
78.4	5
78.41	8
78.42	4
78.43	9
78.44	11
78.45	5
78.46	6
78.47	9
78.48	10
78.49	8
78.5	8
78.51	11
78.52	10
78.53	5
78.54	12
78.55	13
78.56	15
78.57	8
78.58	10
78.59	10
78.6	8
78.61	8
78.62	8
78.63	13
78.64	10
78.65	9
78.66	9
78.67	4
78.68	6
78.69	6
78.7	10
78.71	9
78.72	10
78.73	8
78.74	9
78.75	9
78.76	5
78.77	8
78.78	16
78.79	11
78.8	16
78.81	7
78.82	6
78.83	6
78.84	8
78.85	13
78.86	7
78.87	9
78.88	9
78.89	8
78.9	7
78.91	8
78.92	13
78.93	8
78.94	4
78.95	8
78.96	9
78.97	11
78.98	4
78.99	6
79	5
79.01	8
79.02	10
79.03	6
79.04	6
79.05	14
79.06	5
79.07	8
79.08	6
79.09	12
79.1	4
79.11	12
79.12	12
79.13	7
79.14	11
79.15	9
79.16	10
79.17	7
79.18	9
79.19	8
79.2	4
79.21	9
79.22	8
79.23	5
79.24	5
79.25	10
79.26	8
79.27	8
79.28	6
79.29	8
79.3	6
79.31	5
79.32	10
79.33	10
79.34	6
79.35	11
79.36	11
79.37	6
79.38	7
79.39	7
79.4	10
79.41	12
79.42	8
79.43	7
79.44	5
79.45	7
79.46	8
79.47	7
79.48	6
79.49	9
79.5	6
79.51	10
79.52	14
79.53	8
79.54	8
79.55	4
79.56	6
79.57	6
79.58	8
79.59	6
79.6	8
79.61	6
79.62	8
79.63	15
79.64	3
79.65	14
79.66	11
79.67	12
79.68	8
79.69	6
79.7	8
79.71	11
79.72	2
79.73	8
79.74	12
79.75	8
79.76	6
79.77	10
79.78	7
79.79	6
79.8	7
79.81	12
79.82	11
79.83	7
79.84	5
79.85	7
79.86	9
79.87	9
79.88	13
79.89	8
79.9	10
79.91	8
79.92	12
79.93	5
79.94	13
79.95	11
79.96	4
79.97	8
79.98	10
79.99	8
80	5
80.01	9
80.02	8
80.03	8
80.04	14
80.05	11
80.06	8
80.07	7
80.08	10
80.09	7
80.1	4
80.11	10
80.12	8
80.13	10
80.14	11
80.15	5
80.16	9
80.17	7
80.18	7
80.19	9
80.2	7
80.21	9
80.22	8
80.23	16
80.24	10
80.25	11
80.26	9
80.27	11
80.28	8
80.29	7
80.3	6
80.31	8
80.32	4
80.33	8
80.34	10
80.35	5
80.36	9
80.37	9
80.38	10
80.39	5
80.4	6
80.41	8
80.42	6
80.43	18
80.44	5
80.45	9
80.46	8
80.47	10
80.48	13
80.49	8
80.5	7
80.51	19
80.52	10
80.53	6
80.54	10
80.55	8
80.56	9
80.57	7
80.58	7
80.59	12
80.6	9
80.61	5
80.62	4
80.63	8
80.64	7
80.65	14
80.66	12
80.67	6
80.68	11
80.69	8
80.7	11
80.71	10
80.72	6
80.73	8
80.74	2
80.75	11
80.76	14
80.77	11
80.78	14
80.79	5
80.8	5
80.81	8
80.82	10
80.83	8
80.84	13
80.85	10
80.86	10
80.87	8
80.88	5
80.89	6
80.9	9
80.91	12
80.92	10
80.93	12
80.94	8
80.95	6
80.96	9
80.97	8
80.98	7
80.99	7
81	12
81.01	6
81.02	10
81.03	5
81.04	5
81.05	11
81.06	14
81.07	12
81.08	9
81.09	7
81.1	10
81.11	10
81.12	16
81.13	9
81.14	7
81.15	8
81.16	13
81.17	12
81.18	9
81.19	5
81.2	9
81.21	15
81.22	10
81.23	11
81.24	7
81.25	12
81.26	9
81.27	15
81.28	11
81.29	9
81.3	9
81.31	17
81.32	17
81.33	12
81.34	8
81.35	10
81.36	9
81.37	9
81.38	10
81.39	11
81.4	6
81.41	16
81.42	8
81.43	11
81.44	13
81.45	9
81.46	8
81.47	5
81.48	10
81.49	10
81.5	9
81.51	9
81.52	8
81.53	10
81.54	10
81.55	4
81.56	10
81.57	13
81.58	10
81.59	10
81.6	12
81.61	9
81.62	9
81.63	5
81.64	15
81.65	6
81.66	19
81.67	8
81.68	23
81.69	8
81.7	11
81.71	22
81.72	16
81.73	14
81.74	15
81.75	13
81.76	8
81.77	10
81.78	11
81.79	20
81.8	24
81.81	15
81.82	19
81.83	17
81.84	15
81.85	22
81.86	18
81.87	8
81.88	20
81.89	24
81.9	24
81.91	22
81.92	22
81.93	24
81.94	28
81.95	25
81.96	30
81.97	21
81.98	23
81.99	34
82	29
82.01	44
82.02	28
82.03	40
82.04	45
82.05	40
82.06	48
82.07	51
82.08	41
82.09	57
82.1	69
82.11	62
82.12	50
82.13	49
82.14	56
82.15	54
82.16	48
82.17	59
82.18	57
82.19	48
82.2	49
82.21	44
82.22	33
82.23	47
82.24	32
82.25	45
82.26	38
82.27	33
82.28	42
82.29	32
82.3	25
82.31	26
82.32	33
82.33	27
82.34	29
82.35	24
82.36	28
82.37	22
82.38	25
82.39	23
82.4	25
82.41	23
82.42	19
82.43	26
82.44	15
82.45	13
82.46	25
82.47	12
82.48	24
82.49	17
82.5	14
82.51	10
82.52	13
82.53	24
82.54	12
82.55	14
82.56	9
82.57	12
82.58	14
82.59	11
82.6	14
82.61	15
82.62	12
82.63	15
82.64	7
82.65	10
82.66	9
82.67	16
82.68	4
82.69	11
82.7	10
82.71	11
82.72	12
82.73	10
82.74	12
82.75	9
82.76	9
82.77	16
82.78	10
82.79	15
82.8	4
82.81	14
82.82	8
82.83	14
82.84	11
82.85	10
82.86	11
82.87	10
82.88	10
82.89	8
82.9	9
82.91	12
82.92	8
82.93	10
82.94	8
82.95	12
82.96	8
82.97	11
82.98	6
82.99	5
83	13
83.01	13
83.02	8
83.03	10
83.04	7
83.05	12
83.06	12
83.07	9
83.08	9
83.09	10
83.1	11
83.11	7
83.12	7
83.13	10
83.14	7
83.15	7
83.16	11
83.17	12
83.18	9
83.19	10
83.2	11
83.21	9
83.22	9
83.23	7
83.24	11
83.25	12
83.26	8
83.27	11
83.28	9
83.29	8
83.3	6
83.31	5
83.32	8
83.33	8
83.34	8
83.35	15
83.36	10
83.37	9
83.38	6
83.39	11
83.4	11
83.41	5
83.42	7
83.43	10
83.44	11
83.45	12
83.46	8
83.47	9
83.48	12
83.49	9
83.5	7
83.51	6
83.52	12
83.53	5
83.54	7
83.55	10
83.56	8
83.57	10
83.58	6
83.59	6
83.6	13
83.61	13
83.62	7
83.63	10
83.64	10
83.65	6
83.66	12
83.67	11
83.68	9
83.69	11
83.7	5
83.71	6
83.72	7
83.73	15
83.74	11
83.75	10
83.76	9
83.77	7
83.78	8
83.79	8
83.8	10
83.81	12
83.82	16
83.83	5
83.84	10
83.85	7
83.86	12
83.87	6
83.88	9
83.89	10
83.9	12
83.91	6
83.92	10
83.93	7
83.94	2
83.95	8
83.96	9
83.97	13
83.98	5
83.99	9
84	4
84.01	7
84.02	5
84.03	6
84.04	7
84.05	10
84.06	3
84.07	12
84.08	9
84.09	7
84.1	5
84.11	4
84.12	8
84.13	8
84.14	10
84.15	11
84.16	11
84.17	9
84.18	5
84.19	5
84.2	6
84.21	5
84.22	5
84.23	7
84.24	12
84.25	6
84.26	7
84.27	2
84.28	9
84.29	13
84.3	5
84.31	5
84.32	6
84.33	8
84.34	9
84.35	8
84.36	12
84.37	11
84.38	9
84.39	9
84.4	8
84.41	11
84.42	15
84.43	7
84.44	5
84.45	10
84.46	5
84.47	6
84.48	6
84.49	3
84.5	8
84.51	7
84.52	9
84.53	5
84.54	11
84.55	8
84.56	12
84.57	9
84.58	4
84.59	8
84.6	17
84.61	12
84.62	6
84.63	9
84.64	9
84.65	15
84.66	11
84.67	7
84.68	9
84.69	9
84.7	3
84.71	11
84.72	8
84.73	6
84.74	4
84.75	14
84.76	6
84.77	11
84.78	5
84.79	14
84.8	11
84.81	13
84.82	10
84.83	5
84.84	12
84.85	8
84.86	8
84.87	9
84.88	3
84.89	9
84.9	4
84.91	8
84.92	8
84.93	8
84.94	7
84.95	6
84.96	8
84.97	11
84.98	9
84.99	6
85	6
85.01	10
85.02	11
85.03	5
85.04	5
85.05	6
85.06	5
85.07	7
85.08	8
85.09	10
85.1	9
85.11	13
85.12	10
85.13	9
85.14	8
85.15	8
85.16	16
85.17	7
85.18	5
85.19	4
85.2	9
85.21	8
85.22	5
85.23	7
85.24	5
85.25	8
85.26	12
85.27	13
85.28	6
85.29	7
85.3	11
85.31	4
85.32	9
85.33	10
85.34	9
85.35	13
85.36	11
85.37	14
85.38	6
85.39	14
85.4	9
85.41	1
85.42	9
85.43	6
85.44	9
85.45	6
85.46	5
85.47	6
85.48	5
85.49	4
85.5	5
85.51	6
85.52	8
85.53	6
85.54	5
85.55	9
85.56	10
85.57	11
85.58	12
85.59	7
85.6	6
85.61	6
85.62	10
85.63	8
85.64	8
85.65	8
85.66	10
85.67	5
85.68	19
85.69	14
85.7	8
85.71	7
85.72	9
85.73	5
85.74	8
85.75	10
85.76	9
85.77	12
85.78	11
85.79	10
85.8	9
85.81	14
85.82	9
85.83	9
85.84	10
85.85	15
85.86	8
85.87	8
85.88	19
85.89	6
85.9	8
85.91	8
85.92	8
85.93	6
85.94	10
85.95	6
85.96	11
85.97	11
85.98	5
85.99	8
86	9
86.01	5
86.02	7
86.03	11
86.04	9
86.05	7
86.06	9
86.07	13
86.08	11
86.09	12
86.1	12
86.11	7
86.12	10
86.13	6
86.14	6
86.15	11
86.16	10
86.17	9
86.18	6
86.19	10
86.2	5
86.21	10
86.22	9
86.23	8
86.24	6
86.25	4
86.26	8
86.27	9
86.28	11
86.29	12
86.3	9
86.31	6
86.32	13
86.33	7
86.34	6
86.35	3
86.36	9
86.37	7
86.38	5
86.39	6
86.4	5
86.41	12
86.42	12
86.43	7
86.44	8
86.45	5
86.46	6
86.47	7
86.48	8
86.49	16
86.5	7
86.51	4
86.52	7
86.53	7
86.54	8
86.55	3
86.56	7
86.57	11
86.58	5
86.59	5
86.6	9
86.61	3
86.62	7
86.63	5
86.64	5
86.65	14
86.66	14
86.67	11
86.68	7
86.69	6
86.7	4
86.71	7
86.72	8
86.73	8
86.74	8
86.75	5
86.76	10
86.77	5
86.78	8
86.79	13
86.8	7
86.81	6
86.82	7
86.83	5
86.84	2
86.85	8
86.86	7
86.87	6
86.88	10
86.89	10
86.9	7
86.91	5
86.92	11
86.93	9
86.94	9
86.95	10
86.96	7
86.97	11
86.98	8
86.99	9
87	15
87.01	13
87.02	11
87.03	11
87.04	11
87.05	5
87.06	7
87.07	16
87.08	12
87.09	5
87.1	6
87.11	6
87.12	7
87.13	10
87.14	10
87.15	3
87.16	9
87.17	7
87.18	14
87.19	12
87.2	11
87.21	9
87.22	6
87.23	13
87.24	6
87.25	8
87.26	13
87.27	7
87.28	5
87.29	8
87.3	13
87.31	6
87.32	12
87.33	6
87.34	5
87.35	4
87.36	10
87.37	7
87.38	5
87.39	10
87.4	11
87.41	6
87.42	4
87.43	10
87.44	7
87.45	8
87.46	10
87.47	10
87.48	10
87.49	9
87.5	10
87.51	9
87.52	8
87.53	6
87.54	8
87.55	7
87.56	8
87.57	8
87.58	8
87.59	7
87.6	2
87.61	7
87.62	6
87.63	15
87.64	10
87.65	11
87.66	10
87.67	7
87.68	7
87.69	8
87.7	10
87.71	9
87.72	9
87.73	8
87.74	7
87.75	10
87.76	8
87.77	9
87.78	9
87.79	11
87.8	7
87.81	7
87.82	12
87.83	4
87.84	5
87.85	7
87.86	7
87.87	10
87.88	9
87.89	9
87.9	7
87.91	8
87.92	15
87.93	11
87.94	4
87.95	7
87.96	5
87.97	7
87.98	17
87.99	5
88	10
88.01	9
88.02	12
88.03	10
88.04	12
88.05	7
88.06	8
88.07	6
88.08	7
88.09	6
88.1	7
88.11	10
88.12	8
88.13	11
88.14	8
88.15	7
88.16	8
88.17	10
88.18	8
88.19	12
88.2	13
88.21	8
88.22	9
88.23	10
88.24	11
88.25	8
88.26	8
88.27	15
88.28	8
88.29	11
88.3	12
88.31	6
88.32	5
88.33	9
88.34	7
88.35	5
88.36	7
88.37	9
88.38	8
88.39	12
88.4	12
88.41	8
88.42	5
88.43	12
88.44	8
88.45	11
88.46	10
88.47	10
88.48	9
88.49	6
88.5	5
88.51	9
88.52	12
88.53	5
88.54	11
88.55	6
88.56	10
88.57	9
88.58	10
88.59	10
88.6	6
88.61	9
88.62	4
88.63	8
88.64	7
88.65	10
88.66	9
88.67	14
88.68	5
88.69	7
88.7	11
88.71	4
88.72	6
88.73	8
88.74	12
88.75	8
88.76	8
88.77	8
88.78	5
88.79	5
88.8	5
88.81	4
88.82	6
88.83	8
88.84	8
88.85	7
88.86	18
88.87	5
88.88	11
88.89	12
88.9	6
88.91	10
88.92	8
88.93	6
88.94	9
88.95	9
88.96	13
88.97	6
88.98	10
88.99	6
89	9
89.01	7
89.02	7
89.03	6
89.04	11
89.05	6
89.06	6
89.07	9
89.08	7
89.09	12
89.1	9
89.11	8
89.12	10
89.13	9
89.14	7
89.15	5
89.16	5
89.17	4
89.18	10
89.19	10
89.2	7
89.21	11
89.22	9
89.23	8
89.24	9
89.25	9
89.26	4
89.27	4
89.28	7
89.29	8
89.3	8
89.31	10
89.32	10
89.33	3
89.34	7
89.35	10
89.36	9
89.37	8
89.38	6
89.39	7
89.4	10
89.41	11
89.42	8
89.43	5
89.44	9
89.45	3
89.46	12
89.47	11
89.48	13
89.49	7
89.5	9
89.51	4
89.52	6
89.53	6
89.54	10
89.55	7
89.56	10
89.57	12
89.58	7
89.59	10
89.6	4
89.61	11
89.62	3
89.63	7
89.64	11
89.65	8
89.66	11
89.67	7
89.68	6
89.69	12
89.7	5
89.71	7
89.72	8
89.73	6
89.74	8
89.75	7
89.76	12
89.77	15
89.78	7
89.79	11
89.8	12
89.81	8
89.82	4
89.83	4
89.84	7
89.85	5
89.86	6
89.87	11
89.88	9
89.89	6
89.9	7
89.91	8
89.92	9
89.93	8
89.94	6
89.95	12
89.96	6
89.97	10
89.98	7
89.99	14
90	7
90.01	12
90.02	10
90.03	7
90.04	6
90.05	6
90.06	4
90.07	6
90.08	10
90.09	5
90.1	8
90.11	7
90.12	11
90.13	5
90.14	7
90.15	5
90.16	13
90.17	10
90.18	13
90.19	6
90.2	8
90.21	9
90.22	6
90.23	6
90.24	5
90.25	8
90.26	5
90.27	7
90.28	7
90.29	15
90.3	6
90.31	11
90.32	7
90.33	6
90.34	8
90.35	5
90.36	10
90.37	11
90.38	8
90.39	9
90.4	4
90.41	12
90.42	13
90.43	9
90.44	6
90.45	9
90.46	5
90.47	6
90.48	6
90.49	9
90.5	13
90.51	5
90.52	11
90.53	11
90.54	3
90.55	9
90.56	6
90.57	3
90.58	7
90.59	17
90.6	9
90.61	9
90.62	10
90.63	1
90.64	8
90.65	8
90.66	10
90.67	11
90.68	5
90.69	10
90.7	9
90.71	9
90.72	6
90.73	11
90.74	11
90.75	3
90.76	7
90.77	5
90.78	8
90.79	5
90.8	8
90.81	7
90.82	6
90.83	9
90.84	14
90.85	8
90.86	8
90.87	5
90.88	11
90.89	9
90.9	6
90.91	9
90.92	7
90.93	7
90.94	3
90.95	6
90.96	5
90.97	10
90.98	14
90.99	9
91	11
91.01	5
91.02	10
91.03	12
91.04	13
91.05	8
91.06	9
91.07	8
91.08	13
91.09	8
91.1	5
91.11	8
91.12	7
91.13	11
91.14	12
91.15	6
91.16	3
91.17	10
91.18	19
91.19	3
91.2	8
91.21	10
91.22	9
91.23	9
91.24	4
91.25	9
91.26	11
91.27	8
91.28	7
91.29	13
91.3	7
91.31	10
91.32	13
91.33	6
91.34	10
91.35	7
91.36	8
91.37	8
91.38	9
91.39	5
91.4	6
91.41	8
91.42	5
91.43	9
91.44	6
91.45	11
91.46	12
91.47	10
91.48	4
91.49	9
91.5	7
91.51	13
91.52	10
91.53	11
91.54	10
91.55	13
91.56	8
91.57	8
91.58	8
91.59	12
91.6	11
91.61	9
91.62	10
91.63	9
91.64	11
91.65	9
91.66	10
91.67	7
91.68	7
91.69	11
91.7	13
91.71	10
91.72	13
91.73	7
91.74	11
91.75	12
91.76	5
91.77	9
91.78	7
91.79	11
91.8	11
91.81	8
91.82	12
91.83	14
91.84	10
91.85	9
91.86	9
91.87	14
91.88	13
91.89	7
91.9	10
91.91	15
91.92	5
91.93	10
91.94	12
91.95	13
91.96	13
91.97	13
91.98	12
91.99	14
92	14
92.01	16
92.02	12
92.03	11
92.04	13
92.05	13
92.06	12
92.07	16
92.08	11
92.09	18
92.1	16
92.11	20
92.12	21
92.13	15
92.14	13
92.15	12
92.16	27
92.17	15
92.18	19
92.19	22
92.2	25
92.21	30
92.22	19
92.23	22
92.24	25
92.25	20
92.26	29
92.27	25
92.28	33
92.29	29
92.3	23
92.31	40
92.32	30
92.33	42
92.34	41
92.35	41
92.36	34
92.37	53
92.38	50
92.39	53
92.4	54
92.41	45
92.42	47
92.43	78
92.44	72
92.45	85
92.46	87
92.47	85
92.48	85
92.49	89
92.5	78
92.51	73
92.52	83
92.53	87
92.54	89
92.55	82
92.56	74
92.57	94
92.58	92
92.59	95
92.6	89
92.61	89
92.62	79
92.63	82
92.64	56
92.65	68
92.66	66
92.67	69
92.68	61
92.69	52
92.7	62
92.71	53
92.72	66
92.73	54
92.74	61
92.75	49
92.76	42
92.77	44
92.78	57
92.79	42
92.8	40
92.81	42
92.82	33
92.83	43
92.84	33
92.85	28
92.86	33
92.87	27
92.88	26
92.89	28
92.9	23
92.91	24
92.92	29
92.93	32
92.94	25
92.95	33
92.96	23
92.97	19
92.98	14
92.99	28
93	21
93.01	20
93.02	22
93.03	32
93.04	22
93.05	21
93.06	19
93.07	20
93.08	19
93.09	18
93.1	13
93.11	16
93.12	19
93.13	24
93.14	12
93.15	18
93.16	15
93.17	24
93.18	13
93.19	13
93.2	15
93.21	18
93.22	17
93.23	8
93.24	17
93.25	16
93.26	17
93.27	17
93.28	22
93.29	12
93.3	13
93.31	14
93.32	9
93.33	12
93.34	9
93.35	12
93.36	20
93.37	13
93.38	11
93.39	15
93.4	15
93.41	27
93.42	9
93.43	11
93.44	12
93.45	11
93.46	19
93.47	11
93.48	6
93.49	11
93.5	16
93.51	9
93.52	7
93.53	11
93.54	14
93.55	13
93.56	10
93.57	11
93.58	13
93.59	8
93.6	10
93.61	15
93.62	10
93.63	9
93.64	8
93.65	14
93.66	3
93.67	11
93.68	7
93.69	8
93.7	11
93.71	10
93.72	13
93.73	11
93.74	10
93.75	8
93.76	13
93.77	10
93.78	6
93.79	8
93.8	13
93.81	5
93.82	7
93.83	11
93.84	6
93.85	9
93.86	9
93.87	8
93.88	11
93.89	13
93.9	15
93.91	16
93.92	7
93.93	9
93.94	12
93.95	5
93.96	15
93.97	7
93.98	14
93.99	10
94	11
94.01	11
94.02	10
94.03	10
94.04	5
94.05	6
94.06	13
94.07	8
94.08	11
94.09	13
94.1	8
94.11	7
94.12	6
94.13	7
94.14	10
94.15	9
94.16	8
94.17	5
94.18	10
94.19	4
94.2	11
94.21	11
94.22	12
94.23	8
94.24	11
94.25	5
94.26	8
94.27	8
94.28	9
94.29	6
94.3	7
94.31	13
94.32	10
94.33	5
94.34	12
94.35	11
94.36	5
94.37	8
94.38	10
94.39	11
94.4	5
94.41	7
94.42	8
94.43	9
94.44	5
94.45	5
94.46	4
94.47	12
94.48	6
94.49	5
94.5	11
94.51	12
94.52	6
94.53	9
94.54	8
94.55	11
94.56	5
94.57	7
94.58	9
94.59	8
94.6	11
94.61	5
94.62	4
94.63	8
94.64	7
94.65	15
94.66	10
94.67	4
94.68	8
94.69	11
94.7	11
94.71	11
94.72	13
94.73	7
94.74	7
94.75	14
94.76	11
94.77	9
94.78	7
94.79	8
94.8	12
94.81	9
94.82	11
94.83	9
94.84	5
94.85	8
94.86	9
94.87	6
94.88	9
94.89	8
94.9	6
94.91	7
94.92	9
94.93	8
94.94	7
94.95	9
94.96	13
94.97	9
94.98	4
94.99	10
95	5
95.01	6
95.02	10
95.03	3
95.04	4
95.05	10
95.06	10
95.07	6
95.08	8
95.09	8
95.1	14
95.11	6
95.12	10
95.13	6
95.14	6
95.15	7
95.16	7
95.17	12
95.18	4
95.19	10
95.2	11
95.21	9
95.22	8
95.23	5
95.24	7
95.25	6
95.26	13
95.27	12
95.28	8
95.29	6
95.3	4
95.31	14
95.32	5
95.33	6
95.34	4
95.35	11
95.36	4
95.37	4
95.38	6
95.39	5
95.4	3
95.41	7
95.42	7
95.43	4
95.44	10
95.45	4
95.46	3
95.47	10
95.48	8
95.49	8
95.5	10
95.51	10
95.52	10
95.53	13
95.54	11
95.55	14
95.56	7
95.57	6
95.58	8
95.59	12
95.6	6
95.61	10
95.62	6
95.63	15
95.64	9
95.65	8
95.66	6
95.67	6
95.68	13
95.69	6
95.7	10
95.71	12
95.72	5
95.73	6
95.74	12
95.75	3
95.76	4
95.77	6
95.78	4
95.79	11
95.8	11
95.81	5
95.82	8
95.83	4
95.84	12
95.85	4
95.86	9
95.87	11
95.88	11
95.89	6
95.9	5
95.91	6
95.92	8
95.93	11
95.94	10
95.95	10
95.96	5
95.97	9
95.98	4
95.99	12
96	5
96.01	6
96.02	5
96.03	6
96.04	8
96.05	7
96.06	13
96.07	12
96.08	10
96.09	13
96.1	8
96.11	7
96.12	14
96.13	8
96.14	9
96.15	10
96.16	9
96.17	4
96.18	11
96.19	10
96.2	8
96.21	9
96.22	10
96.23	6
96.24	9
96.25	4
96.26	6
96.27	9
96.28	9
96.29	9
96.3	10
96.31	8
96.32	15
96.33	8
96.34	6
96.35	5
96.36	11
96.37	5
96.38	10
96.39	4
96.4	9
96.41	12
96.42	6
96.43	8
96.44	9
96.45	7
96.46	8
96.47	6
96.48	11
96.49	8
96.5	7
96.51	8
96.52	7
96.53	7
96.54	8
96.55	8
96.56	8
96.57	6
96.58	10
96.59	6
96.6	6
96.61	11
96.62	17
96.63	5
96.64	11
96.65	8
96.66	5
96.67	12
96.68	14
96.69	5
96.7	7
96.71	9
96.72	10
96.73	7
96.74	10
96.75	16
96.76	6
96.77	13
96.78	7
96.79	7
96.8	6
96.81	7
96.82	4
96.83	8
96.84	16
96.85	8
96.86	8
96.87	9
96.88	9
96.89	4
96.9	7
96.91	12
96.92	12
96.93	8
96.94	12
96.95	7
96.96	10
96.97	4
96.98	10
96.99	9
97	7
97.01	6
97.02	7
97.03	11
97.04	10
97.05	8
97.06	13
97.07	7
97.08	9
97.09	10
97.1	9
97.11	10
97.12	12
97.13	6
97.14	10
97.15	8
97.16	9
97.17	7
97.18	8
97.19	4
97.2	12
97.21	4
97.22	11
97.23	15
97.24	5
97.25	3
97.26	13
97.27	8
97.28	13
97.29	7
97.3	7
97.31	7
97.32	7
97.33	12
97.34	7
97.35	4
97.36	15
97.37	11
97.38	10
97.39	11
97.4	8
97.41	11
97.42	12
97.43	11
97.44	8
97.45	7
97.46	11
97.47	13
97.48	7
97.49	4
97.5	8
97.51	8
97.52	4
97.53	5
97.54	6
97.55	6
97.56	10
97.57	7
97.58	10
97.59	11
97.6	7
97.61	17
97.62	6
97.63	9
97.64	8
97.65	5
97.66	13
97.67	10
97.68	9
97.69	13
97.7	9
97.71	9
97.72	8
97.73	8
97.74	9
97.75	8
97.76	7
97.77	7
97.78	12
97.79	16
97.8	13
97.81	10
97.82	6
97.83	8
97.84	7
97.85	12
97.86	13
97.87	8
97.88	6
97.89	10
97.9	5
97.91	1
97.92	9
97.93	1
97.94	10
97.95	5
97.96	7
97.97	7
97.98	7
97.99	4
98	8
98.01	7
98.02	5
98.03	4
98.04	8
98.05	7
98.06	5
98.07	5
98.08	12
98.09	8
98.1	10
98.11	12
98.12	5
98.13	4
98.14	7
98.15	6
98.16	7
98.17	5
98.18	5
98.19	7
98.2	4
98.21	8
98.22	5
98.23	6
98.24	11
98.25	15
98.26	8
98.27	5
98.28	8
98.29	9
98.3	8
98.31	9
98.32	13
98.33	14
98.34	8
98.35	11
98.36	12
98.37	8
98.38	7
98.39	4
98.4	2
98.41	8
98.42	15
98.43	4
98.44	9
98.45	9
98.46	6
98.47	10
98.48	11
98.49	7
98.5	11
98.51	10
98.52	12
98.53	10
98.54	9
98.55	8
98.56	10
98.57	6
98.58	8
98.59	6
98.6	9
98.61	12
98.62	6
98.63	11
98.64	11
98.65	9
98.66	11
98.67	3
98.68	9
98.69	10
98.7	5
98.71	6
98.72	5
98.73	8
98.74	7
98.75	5
98.76	8
98.77	8
98.78	7
98.79	3
98.8	9
98.81	6
98.82	7
98.83	5
98.84	13
98.85	5
98.86	8
98.87	13
98.88	11
98.89	8
98.9	6
98.91	9
98.92	13
98.93	10
98.94	8
98.95	5
98.96	7
98.97	7
98.98	8
98.99	11
99	5
99.01	14
99.02	6
99.03	10
99.04	12
99.05	7
99.06	9
99.07	7
99.08	6
99.09	9
99.1	5
99.11	7
99.12	3
99.13	12
99.14	7
99.15	4
99.16	8
99.17	7
99.18	8
99.19	9
99.2	7
99.21	11
99.22	5
99.23	7
99.24	6
99.25	5
99.26	13
99.27	5
99.28	9
99.29	7
99.3	4
99.31	11
99.32	9
99.33	7
99.34	5
99.35	9
99.36	6
99.37	10
99.38	9
99.39	13
99.4	6
99.41	11
99.42	9
99.43	6
99.44	8
99.45	6
99.46	7
99.47	3
99.48	10
99.49	10
99.5	4
99.51	7
99.52	8
99.53	8
99.54	12
99.55	6
99.56	6
99.57	7
99.58	12
99.59	5
99.6	14
99.61	8
99.62	8
99.63	11
99.64	9
99.65	6
99.66	11
99.67	8
99.68	12
99.69	5
99.7	5
99.71	11
99.72	4
99.73	10
99.74	6
99.75	7
99.76	3
99.77	11
99.78	15
99.79	4
99.8	7
99.81	8
99.82	6
99.83	11
99.84	7
99.85	9
99.86	6
99.87	6
99.88	7
99.89	4
99.9	12
99.91	6
99.92	4
99.93	6
99.94	10
99.95	4
99.96	13
99.97	10
99.98	9
99.99	11
100	5
