# Converted by xyConvert 1.4.0.
# Original file: C:\Users\pdmurray\Desktop\peyton\Projects\YBCO_Getters\Data\Targets\2017-03-20 YBCO Target A.raw
20	189
20.02	186
20.04	197
20.06	213
20.08	205
20.1	208
20.12	173
20.14	193
20.16	208
20.18	207
20.2	180
20.22	172
20.24	221
20.26	227
20.28	191
20.3	163
20.32	158
20.34	173
20.36	172
20.38	179
20.4	198
20.42	198
20.44	190
20.46	198
20.48	181
20.5	184
20.52	186
20.54	209
20.56	193
20.58	187
20.6	183
20.62	211
20.64	196
20.66	196
20.68	192
20.7	200
20.72	189
20.74	185
20.76	171
20.78	189
20.8	182
20.82	202
20.84	171
20.86	198
20.88	207
20.9	181
20.92	170
20.94	174
20.96	199
20.98	191
21	204
21.02	191
21.04	204
21.06	173
21.08	202
21.1	189
21.12	201
21.14	185
21.16	178
21.18	187
21.2	181
21.22	174
21.24	179
21.26	192
21.28	185
21.3	165
21.32	177
21.34	204
21.36	187
21.38	173
21.4	165
21.42	185
21.44	220
21.46	189
21.48	156
21.5	189
21.52	144
21.54	160
21.56	182
21.58	196
21.6	170
21.62	188
21.64	170
21.66	168
21.68	192
21.7	168
21.72	188
21.74	180
21.76	155
21.78	167
21.8	179
21.82	155
21.84	202
21.86	174
21.88	190
21.9	143
21.92	191
21.94	184
21.96	171
21.98	156
22	181
22.02	188
22.04	183
22.06	147
22.08	181
22.1	149
22.12	160
22.14	195
22.16	155
22.18	157
22.2	158
22.22	170
22.24	129
22.26	162
22.28	169
22.3	159
22.32	165
22.34	171
22.36	142
22.38	149
22.4	159
22.42	156
22.44	169
22.46	157
22.48	181
22.5	158
22.52	196
22.54	179
22.56	203
22.58	173
22.6	182
22.62	172
22.64	178
22.66	199
22.68	223
22.7	203
22.72	223
22.74	214
22.76	241
22.78	205
22.8	208
22.82	216
22.84	216
22.86	206
22.88	210
22.9	167
22.92	160
22.94	186
22.96	160
22.98	182
23	136
23.02	149
23.04	156
23.06	154
23.08	126
23.1	159
23.12	152
23.14	150
23.16	169
23.18	154
23.2	156
23.22	155
23.24	161
23.26	160
23.28	171
23.3	138
23.32	144
23.34	160
23.36	121
23.38	147
23.4	119
23.42	129
23.44	134
23.46	122
23.48	120
23.5	138
23.52	138
23.54	137
23.56	128
23.58	134
23.6	138
23.62	126
23.64	143
23.66	118
23.68	126
23.7	117
23.72	129
23.74	143
23.76	131
23.78	123
23.8	149
23.82	141
23.84	109
23.86	126
23.88	107
23.9	136
23.92	134
23.94	112
23.96	116
23.98	118
24	124
24.02	121
24.04	117
24.06	147
24.08	109
24.1	121
24.12	142
24.14	135
24.16	136
24.18	109
24.2	118
24.22	120
24.24	132
24.26	115
24.28	112
24.3	125
24.32	104
24.34	114
24.36	109
24.38	122
24.4	125
24.42	103
24.44	116
24.46	97
24.48	126
24.5	120
24.52	147
24.54	106
24.56	123
24.58	112
24.6	121
24.62	124
24.64	116
24.66	110
24.68	129
24.7	120
24.72	110
24.74	111
24.76	111
24.78	128
24.8	104
24.82	115
24.84	117
24.86	89
24.88	99
24.9	131
24.92	129
24.94	102
24.96	107
24.98	109
25	124
25.02	113
25.04	106
25.06	113
25.08	105
25.1	90
25.12	99
25.14	121
25.16	116
25.18	117
25.2	101
25.22	112
25.24	108
25.26	123
25.28	116
25.3	107
25.32	99
25.34	116
25.36	112
25.38	145
25.4	119
25.42	122
25.44	119
25.46	122
25.48	112
25.5	104
25.52	111
25.54	118
25.56	101
25.58	130
25.6	97
25.62	118
25.64	121
25.66	120
25.68	115
25.7	114
25.72	123
25.74	92
25.76	119
25.78	104
25.8	105
25.82	114
25.84	88
25.86	93
25.88	95
25.9	103
25.92	135
25.94	111
25.96	110
25.98	91
26	94
26.02	119
26.04	110
26.06	89
26.08	132
26.1	116
26.12	111
26.14	101
26.16	100
26.18	103
26.2	93
26.22	113
26.24	116
26.26	106
26.28	112
26.3	86
26.32	95
26.34	105
26.36	82
26.38	105
26.4	93
26.42	104
26.44	105
26.46	108
26.48	99
26.5	114
26.52	106
26.54	116
26.56	102
26.58	100
26.6	112
26.62	105
26.64	87
26.66	92
26.68	91
26.7	102
26.72	82
26.74	90
26.76	95
26.78	92
26.8	107
26.82	99
26.84	91
26.86	97
26.88	92
26.9	97
26.92	84
26.94	109
26.96	96
26.98	101
27	92
27.02	109
27.04	105
27.06	110
27.08	87
27.1	81
27.12	96
27.14	103
27.16	115
27.18	107
27.2	96
27.22	101
27.24	96
27.26	91
27.28	85
27.3	83
27.32	100
27.34	104
27.36	90
27.38	110
27.4	127
27.42	101
27.44	108
27.46	120
27.48	91
27.5	96
27.52	98
27.54	108
27.56	86
27.58	118
27.6	101
27.62	100
27.64	97
27.66	116
27.68	103
27.7	91
27.72	96
27.74	92
27.76	110
27.78	108
27.8	90
27.82	117
27.84	106
27.86	122
27.88	107
27.9	121
27.92	95
27.94	93
27.96	93
27.98	94
28	88
28.02	113
28.04	79
28.06	82
28.08	90
28.1	83
28.12	85
28.14	94
28.16	89
28.18	67
28.2	87
28.22	74
28.24	92
28.26	82
28.28	77
28.3	68
28.32	82
28.34	78
28.36	87
28.38	97
28.4	83
28.42	72
28.44	93
28.46	90
28.48	75
28.5	82
28.52	82
28.54	72
28.56	71
28.58	66
28.6	86
28.62	64
28.64	96
28.66	96
28.68	83
28.7	82
28.72	84
28.74	91
28.76	73
28.78	84
28.8	85
28.82	77
28.84	63
28.86	72
28.88	82
28.9	100
28.92	80
28.94	77
28.96	83
28.98	81
29	79
29.02	75
29.04	71
29.06	63
29.08	85
29.1	78
29.12	60
29.14	80
29.16	78
29.18	82
29.2	83
29.22	87
29.24	96
29.26	93
29.28	82
29.3	66
29.32	71
29.34	75
29.36	76
29.38	74
29.4	76
29.42	71
29.44	76
29.46	75
29.48	89
29.5	79
29.52	67
29.54	62
29.56	63
29.58	72
29.6	82
29.62	75
29.64	61
29.66	75
29.68	75
29.7	86
29.72	64
29.74	73
29.76	79
29.78	73
29.8	89
29.82	81
29.84	66
29.86	83
29.88	58
29.9	73
29.92	78
29.94	72
29.96	82
29.98	75
30	61
30.02	80
30.04	79
30.06	72
30.08	63
30.1	76
30.12	73
30.14	66
30.16	74
30.18	60
30.2	56
30.22	79
30.24	73
30.26	78
30.28	71
30.3	67
30.32	67
30.34	63
30.36	61
30.38	78
30.4	67
30.42	86
30.44	83
30.46	78
30.48	65
30.5	70
30.52	91
30.54	64
30.56	105
30.58	75
30.6	81
30.62	82
30.64	79
30.66	84
30.68	72
30.7	59
30.72	72
30.74	59
30.76	70
30.78	54
30.8	61
30.82	78
30.84	68
30.86	74
30.88	72
30.9	59
30.92	65
30.94	68
30.96	61
30.98	66
31	76
31.02	60
31.04	70
31.06	65
31.08	65
31.1	57
31.12	87
31.14	61
31.16	53
31.18	57
31.2	71
31.22	54
31.24	80
31.26	56
31.28	71
31.3	65
31.32	65
31.34	80
31.36	72
31.38	64
31.4	64
31.42	57
31.44	71
31.46	71
31.48	85
31.5	48
31.52	72
31.54	57
31.56	71
31.58	78
31.6	73
31.62	73
31.64	81
31.66	71
31.68	71
31.7	63
31.72	56
31.74	75
31.76	70
31.78	79
31.8	66
31.82	71
31.84	61
31.86	73
31.88	70
31.9	70
31.92	97
31.94	64
31.96	83
31.98	75
32	75
32.02	72
32.04	76
32.06	80
32.08	98
32.1	83
32.12	89
32.14	87
32.16	103
32.18	103
32.2	124
32.22	119
32.24	134
32.26	127
32.28	122
32.3	177
32.32	178
32.34	189
32.36	220
32.38	228
32.4	238
32.42	303
32.44	288
32.46	331
32.48	345
32.5	417
32.52	414
32.54	389
32.56	428
32.58	419
32.6	409
32.62	388
32.64	373
32.66	406
32.68	440
32.7	431
32.72	489
32.74	481
32.76	532
32.78	553
32.8	540
32.82	541
32.84	548
32.86	493
32.88	449
32.9	395
32.92	316
32.94	280
32.96	233
32.98	231
33	168
33.02	151
33.04	128
33.06	121
33.08	117
33.1	107
33.12	95
33.14	82
33.16	104
33.18	73
33.2	101
33.22	72
33.24	83
33.26	69
33.28	97
33.3	72
33.32	74
33.34	75
33.36	68
33.38	84
33.4	77
33.42	58
33.44	71
33.46	71
33.48	63
33.5	55
33.52	66
33.54	79
33.56	68
33.58	69
33.6	72
33.62	70
33.64	62
33.66	74
33.68	75
33.7	81
33.72	81
33.74	79
33.76	65
33.78	73
33.8	68
33.82	59
33.84	67
33.86	68
33.88	60
33.9	56
33.92	73
33.94	76
33.96	76
33.98	61
34	69
34.02	75
34.04	67
34.06	62
34.08	72
34.1	71
34.12	70
34.14	51
34.16	63
34.18	53
34.2	63
34.22	49
34.24	55
34.26	76
34.28	62
34.3	59
34.32	65
34.34	65
34.36	56
34.38	57
34.4	59
34.42	59
34.44	66
34.46	59
34.48	47
34.5	52
34.52	63
34.54	66
34.56	67
34.58	55
34.6	72
34.62	47
34.64	53
34.66	78
34.68	65
34.7	55
34.72	66
34.74	70
34.76	59
34.78	61
34.8	67
34.82	52
34.84	49
34.86	48
34.88	79
34.9	61
34.92	57
34.94	57
34.96	52
34.98	63
35	57
35.02	62
35.04	54
35.06	48
35.08	51
35.1	51
35.12	72
35.14	63
35.16	61
35.18	63
35.2	50
35.22	57
35.24	64
35.26	54
35.28	54
35.3	61
35.32	60
35.34	57
35.36	57
35.38	60
35.4	61
35.42	57
35.44	56
35.46	72
35.48	62
35.5	71
35.52	68
35.54	88
35.56	70
35.58	58
35.6	58
35.62	87
35.64	49
35.66	58
35.68	68
35.7	69
35.72	76
35.74	56
35.76	59
35.78	66
35.8	67
35.82	56
35.84	53
35.86	70
35.88	81
35.9	53
35.92	71
35.94	74
35.96	58
35.98	65
36	67
36.02	65
36.04	72
36.06	67
36.08	52
36.1	66
36.12	70
36.14	64
36.16	77
36.18	57
36.2	56
36.22	81
36.24	52
36.26	62
36.28	64
36.3	66
36.32	77
36.34	68
36.36	84
36.38	64
36.4	74
36.42	59
36.44	68
36.46	81
36.48	74
36.5	69
36.52	58
36.54	64
36.56	61
36.58	64
36.6	67
36.62	57
36.64	67
36.66	59
36.68	62
36.7	59
36.72	50
36.74	60
36.76	62
36.78	58
36.8	58
36.82	68
36.84	61
36.86	59
36.88	51
36.9	49
36.92	54
36.94	56
36.96	61
36.98	53
37	49
37.02	66
37.04	59
37.06	46
37.08	48
37.1	67
37.12	62
37.14	55
37.16	51
37.18	50
37.2	66
37.22	76
37.24	69
37.26	52
37.28	45
37.3	53
37.32	45
37.34	66
37.36	52
37.38	82
37.4	50
37.42	62
37.44	62
37.46	56
37.48	60
37.5	45
37.52	53
37.54	58
37.56	74
37.58	67
37.6	44
37.62	65
37.64	57
37.66	72
37.68	67
37.7	60
37.72	68
37.74	53
37.76	48
37.78	50
37.8	46
37.82	56
37.84	58
37.86	64
37.88	59
37.9	60
37.92	72
37.94	59
37.96	50
37.98	66
38	68
38.02	79
38.04	59
38.06	66
38.08	57
38.1	59
38.12	63
38.14	62
38.16	69
38.18	71
38.2	66
38.22	62
38.24	64
38.26	78
38.28	76
38.3	86
38.32	94
38.34	100
38.36	121
38.38	121
38.4	128
38.42	125
38.44	136
38.46	146
38.48	142
38.5	119
38.52	123
38.54	125
38.56	119
38.58	116
38.6	95
38.62	98
38.64	79
38.66	82
38.68	83
38.7	74
38.72	79
38.74	87
38.76	74
38.78	68
38.8	74
38.82	77
38.84	74
38.86	78
38.88	63
38.9	59
38.92	49
38.94	54
38.96	66
38.98	66
39	64
39.02	67
39.04	65
39.06	46
39.08	51
39.1	53
39.12	54
39.14	59
39.16	62
39.18	66
39.2	46
39.22	53
39.24	48
39.26	65
39.28	57
39.3	54
39.32	72
39.34	49
39.36	68
39.38	49
39.4	69
39.42	57
39.44	57
39.46	56
39.48	63
39.5	67
39.52	61
39.54	60
39.56	55
39.58	70
39.6	66
39.62	50
39.64	58
39.66	66
39.68	67
39.7	65
39.72	58
39.74	55
39.76	52
39.78	56
39.8	50
39.82	50
39.84	59
39.86	59
39.88	62
39.9	62
39.92	63
39.94	75
39.96	69
39.98	63
40	60
40.02	63
40.04	70
40.06	79
40.08	69
40.1	68
40.12	66
40.14	79
40.16	72
40.18	79
40.2	89
40.22	77
40.24	94
40.26	91
40.28	112
40.3	112
40.32	129
40.34	124
40.36	141
40.38	123
40.4	112
40.42	99
40.44	110
40.46	105
40.48	97
40.5	76
40.52	76
40.54	81
40.56	77
40.58	54
40.6	61
40.62	67
40.64	61
40.66	75
40.68	54
40.7	75
40.72	64
40.74	56
40.76	55
40.78	61
40.8	68
40.82	56
40.84	61
40.86	56
40.88	52
40.9	52
40.92	46
40.94	49
40.96	74
40.98	42
41	57
41.02	57
41.04	45
41.06	59
41.08	55
41.1	52
41.12	46
41.14	56
41.16	63
41.18	51
41.2	63
41.22	60
41.24	56
41.26	53
41.28	53
41.3	60
41.32	73
41.34	36
41.36	53
41.38	63
41.4	37
41.42	49
41.44	58
41.46	46
41.48	50
41.5	62
41.52	63
41.54	42
41.56	50
41.58	52
41.6	47
41.62	58
41.64	53
41.66	51
41.68	59
41.7	51
41.72	52
41.74	52
41.76	48
41.78	65
41.8	68
41.82	62
41.84	54
41.86	61
41.88	49
41.9	50
41.92	54
41.94	69
41.96	53
41.98	66
42	58
42.02	57
42.04	41
42.06	63
42.08	65
42.1	57
42.12	46
42.14	59
42.16	55
42.18	59
42.2	52
42.22	62
42.24	57
42.26	62
42.28	51
42.3	53
42.32	66
42.34	50
42.36	51
42.38	65
42.4	48
42.42	69
42.44	48
42.46	57
42.48	53
42.5	47
42.52	47
42.54	57
42.56	38
42.58	48
42.6	68
42.62	49
42.64	47
42.66	64
42.68	54
42.7	59
42.72	51
42.74	43
42.76	55
42.78	50
42.8	49
42.82	44
42.84	55
42.86	50
42.88	39
42.9	44
42.92	58
42.94	46
42.96	50
42.98	44
43	56
43.02	54
43.04	53
43.06	57
43.08	57
43.1	59
43.12	54
43.14	61
43.16	67
43.18	46
43.2	59
43.22	68
43.24	44
43.26	57
43.28	66
43.3	40
43.32	50
43.34	58
43.36	63
43.38	61
43.4	50
43.42	54
43.44	44
43.46	54
43.48	52
43.5	51
43.52	44
43.54	46
43.56	49
43.58	49
43.6	50
43.62	53
43.64	38
43.66	59
43.68	61
43.7	64
43.72	57
43.74	55
43.76	56
43.78	57
43.8	39
43.82	48
43.84	31
43.86	44
43.88	42
43.9	44
43.92	53
43.94	51
43.96	50
43.98	46
44	52
44.02	56
44.04	47
44.06	46
44.08	52
44.1	50
44.12	55
44.14	53
44.16	56
44.18	48
44.2	42
44.22	49
44.24	37
44.26	52
44.28	55
44.3	58
44.32	49
44.34	53
44.36	49
44.38	44
44.4	52
44.42	61
44.44	74
44.46	58
44.48	53
44.5	58
44.52	53
44.54	64
44.56	59
44.58	53
44.6	67
44.62	44
44.64	61
44.66	56
44.68	45
44.7	57
44.72	49
44.74	42
44.76	40
44.78	51
44.8	44
44.82	45
44.84	37
44.86	52
44.88	54
44.9	44
44.92	51
44.94	53
44.96	54
44.98	62
45	52
45.02	45
45.04	56
45.06	64
45.08	52
45.1	56
45.12	50
45.14	73
45.16	52
45.18	65
45.2	48
45.22	65
45.24	54
45.26	53
45.28	51
45.3	62
45.32	55
45.34	36
45.36	59
45.38	46
45.4	59
45.42	51
45.44	59
45.46	69
45.48	58
45.5	45
45.52	57
45.54	39
45.56	59
45.58	48
45.6	51
45.62	51
45.64	46
45.66	50
45.68	63
45.7	47
45.72	44
45.74	41
45.76	52
45.78	48
45.8	57
45.82	35
45.84	48
45.86	63
45.88	55
45.9	42
45.92	52
45.94	55
45.96	51
45.98	54
46	43
46.02	46
46.04	42
46.06	58
46.08	66
46.1	56
46.12	48
46.14	62
46.16	55
46.18	51
46.2	53
46.22	45
46.24	65
46.26	50
46.28	49
46.3	66
46.32	64
46.34	59
46.36	75
46.38	71
46.4	83
46.42	88
46.44	68
46.46	99
46.48	91
46.5	129
46.52	119
46.54	139
46.56	155
46.58	150
46.6	144
46.62	149
46.64	159
46.66	150
46.68	152
46.7	146
46.72	126
46.74	139
46.76	116
46.78	111
46.8	85
46.82	85
46.84	74
46.86	70
46.88	85
46.9	63
46.92	74
46.94	48
46.96	65
46.98	59
47	65
47.02	72
47.04	59
47.06	44
47.08	63
47.1	54
47.12	62
47.14	66
47.16	43
47.18	73
47.2	45
47.22	68
47.24	46
47.26	62
47.28	43
47.3	55
47.32	63
47.34	63
47.36	69
47.38	55
47.4	64
47.42	83
47.44	98
47.46	88
47.48	77
47.5	62
47.52	91
47.54	104
47.56	96
47.58	95
47.6	96
47.62	108
47.64	71
47.66	90
47.68	79
47.7	61
47.72	64
47.74	71
47.76	60
47.78	53
47.8	49
47.82	61
47.84	70
47.86	65
47.88	42
47.9	55
47.92	39
47.94	48
47.96	51
47.98	38
48	43
48.02	50
48.04	45
48.06	48
48.08	42
48.1	58
48.12	48
48.14	49
48.16	42
48.18	53
48.2	46
48.22	43
48.24	40
48.26	49
48.28	50
48.3	38
48.32	44
48.34	41
48.36	58
48.38	47
48.4	48
48.42	42
48.44	31
48.46	43
48.48	39
48.5	33
48.52	51
48.54	36
48.56	40
48.58	45
48.6	45
48.62	42
48.64	44
48.66	35
48.68	42
48.7	50
48.72	40
48.74	47
48.76	60
48.78	45
48.8	44
48.82	44
48.84	45
48.86	37
48.88	37
48.9	45
48.92	42
48.94	46
48.96	39
48.98	54
49	57
49.02	49
49.04	35
49.06	47
49.08	45
49.1	54
49.12	47
49.14	35
49.16	53
49.18	38
49.2	43
49.22	33
49.24	46
49.26	48
49.28	43
49.3	47
49.32	57
49.34	40
49.36	45
49.38	44
49.4	50
49.42	43
49.44	49
49.46	42
49.48	51
49.5	54
49.52	37
49.54	55
49.56	36
49.58	58
49.6	39
49.62	43
49.64	51
49.66	49
49.68	36
49.7	33
49.72	40
49.74	50
49.76	38
49.78	37
49.8	50
49.82	54
49.84	43
49.86	38
49.88	54
49.9	41
49.92	50
49.94	44
49.96	47
49.98	43
50	38
50.02	36
50.04	43
50.06	51
50.08	37
50.1	43
50.12	42
50.14	27
50.16	40
50.18	42
50.2	45
50.22	55
50.24	45
50.26	40
50.28	42
50.3	40
50.32	42
50.34	49
50.36	46
50.38	45
50.4	46
50.42	42
50.44	46
50.46	43
50.48	34
50.5	38
50.52	38
50.54	43
50.56	40
50.58	41
50.6	39
50.62	41
50.64	52
50.66	51
50.68	39
50.7	39
50.72	53
50.74	35
50.76	40
50.78	49
50.8	37
50.82	42
50.84	37
50.86	44
50.88	36
50.9	30
50.92	44
50.94	33
50.96	50
50.98	42
51	38
51.02	44
51.04	44
51.06	38
51.08	37
51.1	40
51.12	31
51.14	35
51.16	32
51.18	35
51.2	46
51.22	48
51.24	47
51.26	52
51.28	44
51.3	43
51.32	50
51.34	40
51.36	50
51.38	55
51.4	45
51.42	45
51.44	64
51.46	42
51.48	40
51.5	54
51.52	57
51.54	49
51.56	60
51.58	49
51.6	54
51.62	45
51.64	52
51.66	45
51.68	52
51.7	45
51.72	51
51.74	46
51.76	46
51.78	41
51.8	44
51.82	35
51.84	32
51.86	38
51.88	43
51.9	41
51.92	43
51.94	31
51.96	35
51.98	45
52	29
52.02	40
52.04	40
52.06	43
52.08	42
52.1	35
52.12	36
52.14	41
52.16	42
52.18	46
52.2	46
52.22	45
52.24	38
52.26	44
52.28	58
52.3	56
52.32	43
52.34	38
52.36	43
52.38	45
52.4	45
52.42	45
52.44	44
52.46	46
52.48	71
52.5	43
52.52	45
52.54	52
52.56	40
52.58	47
52.6	53
52.62	47
52.64	56
52.66	44
52.68	40
52.7	50
52.72	50
52.74	54
52.76	54
52.78	47
52.8	38
52.82	48
52.84	38
52.86	39
52.88	48
52.9	35
52.92	36
52.94	41
52.96	40
52.98	33
53	32
53.02	45
53.04	40
53.06	54
53.08	35
53.1	43
53.12	40
53.14	46
53.16	40
53.18	44
53.2	47
53.22	42
53.24	34
53.26	39
53.28	43
53.3	44
53.32	42
53.34	41
53.36	46
53.38	40
53.4	30
53.42	40
53.44	30
53.46	47
53.48	33
53.5	43
53.52	31
53.54	54
53.56	32
53.58	38
53.6	42
53.62	38
53.64	41
53.66	47
53.68	40
53.7	35
53.72	33
53.74	41
53.76	36
53.78	42
53.8	32
53.82	45
53.84	54
53.86	40
53.88	31
53.9	42
53.92	42
53.94	31
53.96	34
53.98	34
54	34
54.02	33
54.04	44
54.06	43
54.08	47
54.1	37
54.12	42
54.14	36
54.16	30
54.18	47
54.2	46
54.22	36
54.24	40
54.26	38
54.28	23
54.3	36
54.32	30
54.34	41
54.36	29
54.38	37
54.4	32
54.42	37
54.44	38
54.46	38
54.48	39
54.5	38
54.52	33
54.54	62
54.56	33
54.58	33
54.6	30
54.62	37
54.64	42
54.66	30
54.68	41
54.7	41
54.72	33
54.74	42
54.76	39
54.78	38
54.8	39
54.82	40
54.84	49
54.86	53
54.88	38
54.9	41
54.92	59
54.94	32
54.96	49
54.98	48
55	34
55.02	55
55.04	32
55.06	52
55.08	47
55.1	41
55.12	37
55.14	41
55.16	53
55.18	45
55.2	38
55.22	39
55.24	46
55.26	33
55.28	46
55.3	37
55.32	41
55.34	34
55.36	34
55.38	37
55.4	42
55.42	44
55.44	30
55.46	33
55.48	34
55.5	45
55.52	42
55.54	34
55.56	40
55.58	42
55.6	45
55.62	35
55.64	42
55.66	41
55.68	37
55.7	40
55.72	53
55.74	42
55.76	45
55.78	39
55.8	39
55.82	44
55.84	50
55.86	41
55.88	37
55.9	34
55.92	57
55.94	42
55.96	38
55.98	46
56	40
56.02	46
56.04	50
56.06	32
56.08	39
56.1	35
56.12	35
56.14	39
56.16	39
56.18	38
56.2	43
56.22	37
56.24	40
56.26	40
56.28	55
56.3	35
56.32	38
56.34	35
56.36	40
56.38	28
56.4	31
56.42	44
56.44	37
56.46	42
56.48	39
56.5	45
56.52	33
56.54	34
56.56	26
56.58	42
56.6	26
56.62	32
56.64	37
56.66	34
56.68	45
56.7	40
56.72	37
56.74	42
56.76	39
56.78	40
56.8	37
56.82	29
56.84	33
56.86	28
56.88	48
56.9	37
56.92	39
56.94	38
56.96	32
56.98	36
57	33
57.02	39
57.04	42
57.06	41
57.08	32
57.1	31
57.12	38
57.14	37
57.16	47
57.18	47
57.2	43
57.22	28
57.24	41
57.26	35
57.28	45
57.3	43
57.32	45
57.34	40
57.36	40
57.38	36
57.4	40
57.42	45
57.44	34
57.46	41
57.48	48
57.5	33
57.52	31
57.54	42
57.56	41
57.58	41
57.6	43
57.62	39
57.64	43
57.66	45
57.68	44
57.7	46
57.72	39
57.74	31
57.76	44
57.78	37
57.8	49
57.82	60
57.84	61
57.86	42
57.88	59
57.9	69
57.92	55
57.94	49
57.96	66
57.98	58
58	81
58.02	69
58.04	105
58.06	102
58.08	114
58.1	117
58.12	140
58.14	126
58.16	128
58.18	144
58.2	138
58.22	147
58.24	133
58.26	114
58.28	137
58.3	120
58.32	120
58.34	99
58.36	105
58.38	114
58.4	94
58.42	89
58.44	80
58.46	64
58.48	71
58.5	90
58.52	68
58.54	56
58.56	59
58.58	57
58.6	69
58.62	59
58.64	77
58.66	64
58.68	75
58.7	91
58.72	89
58.74	77
58.76	74
58.78	74
58.8	67
58.82	59
58.84	85
58.86	93
58.88	69
58.9	64
58.92	65
58.94	64
58.96	64
58.98	54
59	74
59.02	55
59.04	43
59.06	63
59.08	46
59.1	51
59.12	43
59.14	41
59.16	39
59.18	55
59.2	40
59.22	39
59.24	51
59.26	39
59.28	48
59.3	41
59.32	45
59.34	36
59.36	37
59.38	28
59.4	43
59.42	44
59.44	43
59.46	35
59.48	33
59.5	33
59.52	44
59.54	34
59.56	22
59.58	42
59.6	33
59.62	41
59.64	33
59.66	33
59.68	23
59.7	31
59.72	26
59.74	41
59.76	44
59.78	52
59.8	47
59.82	43
59.84	35
59.86	28
59.88	45
59.9	29
59.92	26
59.94	32
59.96	36
59.98	25
60	28
60.02	40
60.04	33
60.06	39
60.08	38
60.1	45
60.12	22
60.14	40
60.16	47
60.18	46
60.2	48
60.22	41
60.24	29
60.26	37
60.28	35
60.3	53
60.32	37
60.34	34
60.36	49
60.38	38
60.4	43
60.42	45
60.44	40
60.46	43
60.48	34
60.5	39
60.52	31
60.54	53
60.56	35
60.58	33
60.6	39
60.62	39
60.64	37
60.66	35
60.68	43
60.7	39
60.72	27
60.74	36
60.76	41
60.78	41
60.8	41
60.82	35
60.84	39
60.86	38
60.88	32
60.9	50
60.92	31
60.94	38
60.96	38
60.98	46
61	40
61.02	38
61.04	35
61.06	26
61.08	34
61.1	34
61.12	36
61.14	31
61.16	26
61.18	34
61.2	27
61.22	39
61.24	23
61.26	33
61.28	32
61.3	39
61.32	37
61.34	41
61.36	39
61.38	32
61.4	32
61.42	42
61.44	45
61.46	30
61.48	29
61.5	36
61.52	34
61.54	45
61.56	42
61.58	36
61.6	39
61.62	35
61.64	38
61.66	44
61.68	32
61.7	30
61.72	46
61.74	33
61.76	42
61.78	42
61.8	39
61.82	31
61.84	52
61.86	43
61.88	32
61.9	38
61.92	40
61.94	51
61.96	42
61.98	52
62	44
62.02	45
62.04	40
62.06	39
62.08	39
62.1	35
62.12	48
62.14	36
62.16	47
62.18	37
62.2	43
62.22	40
62.24	37
62.26	39
62.28	44
62.3	37
62.32	41
62.34	39
62.36	31
62.38	32
62.4	41
62.42	33
62.44	41
62.46	38
62.48	38
62.5	38
62.52	34
62.54	36
62.56	36
62.58	38
62.6	38
62.62	40
62.64	31
62.66	51
62.68	39
62.7	32
62.72	43
62.74	37
62.76	44
62.78	36
62.8	41
62.82	33
62.84	35
62.86	29
62.88	36
62.9	34
62.92	33
62.94	36
62.96	38
62.98	27
63	33
63.02	34
63.04	38
63.06	33
63.08	41
63.1	26
63.12	30
63.14	38
63.16	33
63.18	27
63.2	36
63.22	30
63.24	29
63.26	31
63.28	39
63.3	43
63.32	40
63.34	32
63.36	34
63.38	34
63.4	41
63.42	28
63.44	38
63.46	25
63.48	32
63.5	32
63.52	38
63.54	32
63.56	26
63.58	29
63.6	31
63.62	33
63.64	27
63.66	23
63.68	41
63.7	28
63.72	30
63.74	37
63.76	33
63.78	33
63.8	30
63.82	33
63.84	36
63.86	39
63.88	38
63.9	28
63.92	24
63.94	32
63.96	37
63.98	37
64	33
64.02	29
64.04	28
64.06	36
64.08	32
64.1	29
64.12	28
64.14	25
64.16	26
64.18	42
64.2	36
64.22	35
64.24	42
64.26	36
64.28	32
64.3	30
64.32	32
64.34	40
64.36	42
64.38	34
64.4	33
64.42	46
64.44	31
64.46	29
64.48	27
64.5	39
64.52	43
64.54	33
64.56	34
64.58	29
64.6	22
64.62	43
64.64	28
64.66	34
64.68	41
64.7	31
64.72	29
64.74	30
64.76	38
64.78	23
64.8	34
64.82	25
64.84	30
64.86	34
64.88	41
64.9	27
64.92	32
64.94	34
64.96	27
64.98	36
65	35
65.02	28
65.04	31
65.06	38
65.08	38
65.1	37
65.12	33
65.14	36
65.16	40
65.18	35
65.2	30
65.22	30
65.24	33
65.26	33
65.28	30
65.3	41
65.32	39
65.34	34
65.36	42
65.38	39
65.4	41
65.42	38
65.44	40
65.46	39
65.48	31
65.5	33
65.52	41
65.54	38
65.56	38
65.58	36
65.6	26
65.62	26
65.64	42
65.66	32
65.68	40
65.7	40
65.72	39
65.74	32
65.76	31
65.78	28
65.8	34
65.82	36
65.84	27
65.86	29
65.88	29
65.9	32
65.92	32
65.94	22
65.96	27
65.98	34
66	35
66.02	29
66.04	27
66.06	16
66.08	33
66.1	27
66.12	28
66.14	26
66.16	33
66.18	33
66.2	37
66.22	33
66.24	26
66.26	33
66.28	51
66.3	41
66.32	23
66.34	40
66.36	31
66.38	34
66.4	23
66.42	25
66.44	33
66.46	30
66.48	40
66.5	34
66.52	35
66.54	25
66.56	38
66.58	34
66.6	31
66.62	26
66.64	29
66.66	41
66.68	33
66.7	34
66.72	26
66.74	25
66.76	30
66.78	31
66.8	34
66.82	28
66.84	33
66.86	31
66.88	44
66.9	28
66.92	34
66.94	31
66.96	21
66.98	32
67	33
67.02	25
67.04	26
67.06	37
67.08	34
67.1	38
67.12	39
67.14	36
67.16	43
67.18	39
67.2	31
67.22	39
67.24	39
67.26	34
67.28	43
67.3	34
67.32	30
67.34	29
67.36	29
67.38	24
67.4	29
67.42	36
67.44	31
67.46	34
67.48	26
67.5	30
67.52	32
67.54	33
67.56	30
67.58	30
67.6	31
67.62	33
67.64	33
67.66	36
67.68	30
67.7	27
67.72	34
67.74	41
67.76	35
67.78	33
67.8	34
67.82	39
67.84	31
67.86	34
67.88	25
67.9	47
67.92	37
67.94	45
67.96	48
67.98	39
68	35
68.02	43
68.04	47
68.06	58
68.08	54
68.1	52
68.12	39
68.14	51
68.16	43
68.18	39
68.2	58
68.22	49
68.24	40
68.26	43
68.28	50
68.3	37
68.32	39
68.34	40
68.36	54
68.38	31
68.4	46
68.42	37
68.44	34
68.46	37
68.48	56
68.5	40
68.52	58
68.54	47
68.56	40
68.58	46
68.6	62
68.62	54
68.64	44
68.66	59
68.68	60
68.7	63
68.72	72
68.74	76
68.76	59
68.78	67
68.8	63
68.82	68
68.84	65
68.86	53
68.88	62
68.9	59
68.92	55
68.94	58
68.96	71
68.98	48
69	64
69.02	53
69.04	46
69.06	45
69.08	44
69.1	30
69.12	38
69.14	40
69.16	34
69.18	34
69.2	32
69.22	42
69.24	32
69.26	30
69.28	33
69.3	37
69.32	34
69.34	27
69.36	29
69.38	34
69.4	28
69.42	26
69.44	38
69.46	32
69.48	37
69.5	33
69.52	31
69.54	30
69.56	26
69.58	29
69.6	33
69.62	27
69.64	33
69.66	31
69.68	32
69.7	32
69.72	29
69.74	40
69.76	33
69.78	26
69.8	32
69.82	27
69.84	32
69.86	23
69.88	42
69.9	35
69.92	35
69.94	38
69.96	33
69.98	27
70	26
70.02	33
70.04	35
70.06	35
70.08	31
70.1	28
70.12	28
70.14	35
70.16	29
70.18	36
70.2	28
70.22	25
70.24	30
70.26	37
70.28	19
70.3	40
70.32	30
70.34	23
70.36	28
70.38	41
70.4	28
70.42	32
70.44	26
70.46	39
70.48	24
70.5	28
70.52	26
70.54	33
70.56	31
70.58	33
70.6	34
70.62	36
70.64	33
70.66	28
70.68	33
70.7	43
70.72	37
70.74	33
70.76	26
70.78	28
70.8	24
70.82	35
70.84	26
70.86	25
70.88	31
70.9	34
70.92	23
70.94	32
70.96	35
70.98	33
71	29
71.02	22
71.04	26
71.06	34
71.08	43
71.1	27
71.12	37
71.14	33
71.16	36
71.18	38
71.2	33
71.22	35
71.24	27
71.26	41
71.28	29
71.3	26
71.32	37
71.34	37
71.36	38
71.38	29
71.4	34
71.42	22
71.44	31
71.46	28
71.48	27
71.5	30
71.52	29
71.54	35
71.56	29
71.58	23
71.6	24
71.62	33
71.64	31
71.66	26
71.68	35
71.7	37
71.72	32
71.74	32
71.76	32
71.78	26
71.8	33
71.82	33
71.84	26
71.86	37
71.88	31
71.9	25
71.92	40
71.94	25
71.96	33
71.98	30
72	27
72.02	26
72.04	24
72.06	24
72.08	35
72.1	28
72.12	28
72.14	29
72.16	26
72.18	23
72.2	22
72.22	31
72.24	32
72.26	30
72.28	34
72.3	29
72.32	28
72.34	33
72.36	21
72.38	29
72.4	32
72.42	36
72.44	35
72.46	25
72.48	29
72.5	34
72.52	33
72.54	35
72.56	31
72.58	29
72.6	40
72.62	34
72.64	33
72.66	28
72.68	34
72.7	32
72.72	25
72.74	38
72.76	22
72.78	26
72.8	38
72.82	36
72.84	25
72.86	27
72.88	27
72.9	35
72.92	24
72.94	30
72.96	48
72.98	40
73	36
73.02	44
73.04	37
73.06	28
73.08	34
73.1	45
73.12	33
73.14	41
73.16	33
73.18	33
73.2	28
73.22	37
73.24	28
73.26	31
73.28	35
73.3	34
73.32	51
73.34	24
73.36	34
73.38	36
73.4	34
73.42	42
73.44	33
73.46	26
73.48	28
73.5	38
73.52	31
73.54	40
73.56	36
73.58	40
73.6	36
73.62	40
73.64	32
73.66	35
73.68	35
73.7	28
73.72	30
73.74	38
73.76	41
73.78	32
73.8	26
73.82	21
73.84	32
73.86	26
73.88	30
73.9	28
73.92	24
73.94	36
73.96	34
73.98	27
74	25
74.02	23
74.04	36
74.06	39
74.08	33
74.1	24
74.12	36
74.14	37
74.16	28
74.18	19
74.2	25
74.22	34
74.24	28
74.26	31
74.28	44
74.3	29
74.32	34
74.34	20
74.36	39
74.38	25
74.4	33
74.42	38
74.44	36
74.46	18
74.48	35
74.5	37
74.52	20
74.54	39
74.56	25
74.58	26
74.6	29
74.62	33
74.64	37
74.66	35
74.68	33
74.7	33
74.72	33
74.74	30
74.76	35
74.78	29
74.8	34
74.82	30
74.84	29
74.86	31
74.88	34
74.9	34
74.92	34
74.94	32
74.96	36
74.98	28
75	32
75.02	30
75.04	37
75.06	30
75.08	24
75.1	27
75.12	36
75.14	37
75.16	41
75.18	39
75.2	26
75.22	33
75.24	34
75.26	33
75.28	36
75.3	27
75.32	32
75.34	30
75.36	34
75.38	28
75.4	35
75.42	27
75.44	26
75.46	20
75.48	28
75.5	38
75.52	24
75.54	34
75.56	29
75.58	36
75.6	30
75.62	28
75.64	34
75.66	31
75.68	32
75.7	35
75.72	34
75.74	36
75.76	35
75.78	40
75.8	27
75.82	29
75.84	30
75.86	27
75.88	21
75.9	32
75.92	38
75.94	37
75.96	32
75.98	26
76	34
76.02	31
76.04	26
76.06	29
76.08	20
76.1	22
76.12	24
76.14	37
76.16	32
76.18	26
76.2	28
76.22	34
76.24	28
76.26	39
76.28	29
76.3	33
76.32	26
76.34	35
76.36	21
76.38	37
76.4	33
76.42	25
76.44	26
76.46	24
76.48	35
76.5	27
76.52	27
76.54	32
76.56	31
76.58	29
76.6	40
76.62	35
76.64	32
76.66	25
76.68	28
76.7	34
76.72	24
76.74	31
76.76	31
76.78	36
76.8	35
76.82	42
76.84	26
76.86	36
76.88	27
76.9	39
76.92	36
76.94	32
76.96	30
76.98	28
77	34
77.02	33
77.04	27
77.06	28
77.08	30
77.1	31
77.12	41
77.14	26
77.16	37
77.18	40
77.2	35
77.22	36
77.24	26
77.26	30
77.28	35
77.3	36
77.32	37
77.34	34
77.36	32
77.38	34
77.4	36
77.42	44
77.44	27
77.46	50
77.48	38
77.5	44
77.52	51
77.54	31
77.56	50
77.58	52
77.6	48
77.62	42
77.64	53
77.66	44
77.68	35
77.7	53
77.72	43
77.74	42
77.76	44
77.78	39
77.8	39
77.82	45
77.84	49
77.86	37
77.88	53
77.9	41
77.92	42
77.94	28
77.96	37
77.98	37
78	25
78.02	36
78.04	29
78.06	30
78.08	34
78.1	29
78.12	40
78.14	39
78.16	25
78.18	29
78.2	24
78.22	31
78.24	34
78.26	41
78.28	19
78.3	32
78.32	32
78.34	37
78.36	36
78.38	36
78.4	27
78.42	40
78.44	27
78.46	32
78.48	31
78.5	35
78.52	37
78.54	22
78.56	30
78.58	33
78.6	42
78.62	25
78.64	30
78.66	40
78.68	41
78.7	23
78.72	35
78.74	35
78.76	29
78.78	43
78.8	35
78.82	32
78.84	32
78.86	36
78.88	39
78.9	53
78.92	34
78.94	42
78.96	42
78.98	46
79	41
79.02	45
79.04	38
79.06	56
79.08	45
79.1	47
79.12	40
79.14	35
79.16	47
79.18	38
79.2	40
79.22	37
79.24	41
79.26	50
79.28	31
79.3	45
79.32	31
79.34	37
79.36	47
79.38	38
79.4	31
79.42	31
79.44	27
79.46	29
79.48	32
79.5	35
79.52	40
79.54	27
79.56	34
79.58	30
79.6	26
79.62	40
79.64	35
79.66	37
79.68	25
79.7	31
79.72	36
79.74	36
79.76	26
79.78	25
79.8	40
79.82	25
79.84	32
79.86	35
79.88	33
79.9	18
79.92	25
79.94	33
79.96	30
79.98	23
80	25
80.02	28
80.04	40
80.06	29
80.08	31
80.1	35
80.12	35
80.14	38
80.16	37
80.18	40
80.2	25
80.22	35
80.24	35
80.26	28
80.28	34
80.3	36
80.32	32
80.34	40
80.36	42
80.38	31
80.4	27
80.42	31
80.44	23
80.46	27
80.48	44
80.5	26
80.52	38
80.54	25
80.56	35
80.58	33
80.6	37
80.62	29
80.64	30
80.66	24
80.68	24
80.7	28
80.72	29
80.74	22
80.76	24
80.78	25
80.8	29
80.82	24
80.84	32
80.86	22
80.88	28
80.9	33
80.92	24
80.94	27
80.96	28
80.98	19
81	38
81.02	29
81.04	32
81.06	31
81.08	34
81.1	34
81.12	38
81.14	30
81.16	41
81.18	26
81.2	30
81.22	32
81.24	32
81.26	22
81.28	40
81.3	23
81.32	24
81.34	30
81.36	29
81.38	30
81.4	34
81.42	30
81.44	23
81.46	34
81.48	28
81.5	30
81.52	38
81.54	35
81.56	29
81.58	26
81.6	30
81.62	25
81.64	31
81.66	38
81.68	29
81.7	34
81.72	27
81.74	32
81.76	27
81.78	24
81.8	32
81.82	32
81.84	28
81.86	29
81.88	44
81.9	31
81.92	28
81.94	37
81.96	39
81.98	36
82	35
82.02	28
82.04	24
82.06	22
82.08	24
82.1	35
82.12	38
82.14	27
82.16	36
82.18	32
82.2	28
82.22	29
82.24	32
82.26	40
82.28	34
82.3	29
82.32	19
82.34	35
82.36	37
82.38	31
82.4	41
82.42	31
82.44	41
82.46	37
82.48	36
82.5	35
82.52	39
82.54	44
82.56	30
82.58	26
82.6	35
82.62	40
82.64	37
82.66	30
82.68	33
82.7	40
82.72	23
82.74	38
82.76	34
82.78	28
82.8	19
82.82	19
82.84	34
82.86	23
82.88	29
82.9	30
82.92	22
82.94	25
82.96	32
82.98	26
83	23
83.02	33
83.04	30
83.06	38
83.08	31
83.1	18
83.12	35
83.14	31
83.16	26
83.18	22
83.2	22
83.22	25
83.24	23
83.26	21
83.28	23
83.3	31
83.32	30
83.34	23
83.36	23
83.38	30
83.4	37
83.42	26
83.44	36
83.46	26
83.48	24
83.5	42
83.52	34
83.54	24
83.56	25
83.58	28
83.6	39
83.62	23
83.64	27
83.66	16
83.68	33
83.7	40
83.72	18
83.74	26
83.76	20
83.78	15
83.8	38
83.82	21
83.84	26
83.86	34
83.88	22
83.9	30
83.92	26
83.94	30
83.96	27
83.98	26
84	21
84.02	20
84.04	33
84.06	13
84.08	29
84.1	33
84.12	33
84.14	24
84.16	33
84.18	23
84.2	21
84.22	28
84.24	28
84.26	21
84.28	26
84.3	27
84.32	25
84.34	36
84.36	21
84.38	28
84.4	21
84.42	19
84.44	30
84.46	36
84.48	23
84.5	25
84.52	21
84.54	27
84.56	37
84.58	29
84.6	26
84.62	26
84.64	29
84.66	24
84.68	29
84.7	31
84.72	27
84.74	34
84.76	22
84.78	34
84.8	25
84.82	33
84.84	34
84.86	32
84.88	20
84.9	34
84.92	31
84.94	30
84.96	28
84.98	26
85	28
85.02	35
85.04	27
85.06	32
85.08	22
85.1	28
85.12	31
85.14	33
85.16	33
85.18	26
85.2	34
85.22	26
85.24	28
85.26	25
85.28	30
85.3	22
85.32	28
85.34	25
85.36	29
85.38	30
85.4	26
85.42	28
85.44	28
85.46	32
85.48	26
85.5	30
85.52	21
85.54	28
85.56	28
85.58	15
85.6	18
85.62	28
85.64	29
85.66	36
85.68	30
85.7	29
85.72	26
85.74	25
85.76	29
85.78	26
85.8	25
85.82	33
85.84	30
85.86	33
85.88	35
85.9	21
85.92	29
85.94	29
85.96	32
85.98	20
86	32
86.02	19
86.04	23
86.06	33
86.08	27
86.1	34
86.12	34
86.14	20
86.16	32
86.18	25
86.2	23
86.22	26
86.24	28
86.26	27
86.28	25
86.3	24
86.32	22
86.34	29
86.36	30
86.38	24
86.4	33
86.42	31
86.44	34
86.46	28
86.48	32
86.5	36
86.52	26
86.54	27
86.56	23
86.58	30
86.6	32
86.62	27
86.64	25
86.66	29
86.68	26
86.7	29
86.72	29
86.74	34
86.76	20
86.78	36
86.8	30
86.82	38
86.84	31
86.86	33
86.88	36
86.9	38
86.92	38
86.94	34
86.96	39
86.98	26
87	38
87.02	40
87.04	50
87.06	34
87.08	55
87.1	51
87.12	33
87.14	62
87.16	47
87.18	49
87.2	41
87.22	48
87.24	43
87.26	46
87.28	46
87.3	38
87.32	40
87.34	43
87.36	45
87.38	35
87.4	39
87.42	34
87.44	49
87.46	37
87.48	37
87.5	34
87.52	58
87.54	30
87.56	35
87.58	37
87.6	41
87.62	29
87.64	33
87.66	36
87.68	31
87.7	34
87.72	27
87.74	32
87.76	41
87.78	32
87.8	31
87.82	34
87.84	29
87.86	39
87.88	32
87.9	35
87.92	32
87.94	41
87.96	30
87.98	24
88	35
88.02	33
88.04	33
88.06	24
88.08	26
88.1	18
88.12	29
88.14	28
88.16	33
88.18	17
88.2	33
88.22	26
88.24	23
88.26	25
88.28	31
88.3	28
88.32	23
88.34	25
88.36	28
88.38	15
88.4	24
88.42	23
88.44	21
88.46	23
88.48	26
88.5	30
88.52	35
88.54	21
88.56	22
88.58	22
88.6	20
88.62	26
88.64	16
88.66	35
88.68	17
88.7	21
88.72	30
88.74	25
88.76	30
88.78	26
88.8	26
88.82	31
88.84	28
88.86	24
88.88	27
88.9	27
88.92	35
88.94	22
88.96	34
88.98	28
89	27
89.02	29
89.04	22
89.06	31
89.08	30
89.1	16
89.12	38
89.14	30
89.16	19
89.18	20
89.2	27
89.22	25
89.24	32
89.26	29
89.28	32
89.3	24
89.32	21
89.34	28
89.36	32
89.38	38
89.4	29
89.42	25
89.44	31
89.46	30
89.48	23
89.5	24
89.52	19
89.54	20
89.56	34
89.58	32
89.6	26
89.62	38
89.64	25
89.66	33
89.68	28
89.7	24
89.72	26
89.74	16
89.76	25
89.78	24
89.8	24
89.82	28
89.84	37
89.86	26
89.88	31
89.9	24
89.92	28
89.94	46
89.96	22
89.98	23
90	38
90.02	33
90.04	27
90.06	20
90.08	23
90.1	26
90.12	18
90.14	33
90.16	29
90.18	32
90.2	34
90.22	38
90.24	36
90.26	26
90.28	31
90.3	26
90.32	33
90.34	26
90.36	24
90.38	29
90.4	29
90.42	29
90.44	23
90.46	34
90.48	32
90.5	27
90.52	20
90.54	28
90.56	25
90.58	29
90.6	28
90.62	32
90.64	28
90.66	20
90.68	34
90.7	23
90.72	32
90.74	30
90.76	25
90.78	24
90.8	29
90.82	25
90.84	32
90.86	35
90.88	29
90.9	21
90.92	31
90.94	30
90.96	28
90.98	29
91	21
91.02	30
91.04	33
91.06	24
91.08	35
91.1	26
91.12	30
91.14	24
91.16	25
91.18	29
91.2	23
91.22	23
91.24	28
91.26	27
91.28	31
91.3	33
91.32	21
91.34	28
91.36	18
91.38	27
91.4	26
91.42	39
91.44	37
91.46	30
91.48	33
91.5	29
91.52	34
91.54	27
91.56	37
91.58	34
91.6	31
91.62	36
91.64	24
91.66	29
91.68	33
91.7	28
91.72	27
91.74	39
91.76	33
91.78	30
91.8	32
91.82	27
91.84	28
91.86	37
91.88	27
91.9	25
91.92	26
91.94	25
91.96	22
91.98	31
92	30
92.02	31
92.04	32
92.06	31
92.08	27
92.1	32
92.12	26
92.14	25
92.16	30
92.18	26
92.2	33
92.22	23
92.24	27
92.26	36
92.28	26
92.3	27
92.32	20
92.34	23
92.36	29
92.38	27
92.4	37
92.42	31
92.44	22
92.46	23
92.48	24
92.5	30
92.52	21
92.54	33
92.56	23
92.58	33
92.6	25
92.62	23
92.64	40
92.66	33
92.68	35
92.7	26
92.72	28
92.74	24
92.76	25
92.78	33
92.8	40
92.82	38
92.84	36
92.86	28
92.88	30
92.9	34
92.92	34
92.94	34
92.96	24
92.98	32
93	31
93.02	35
93.04	22
93.06	27
93.08	25
93.1	35
93.12	28
93.14	24
93.16	26
93.18	30
93.2	37
93.22	29
93.24	27
93.26	28
93.28	28
93.3	23
93.32	31
93.34	37
93.36	32
93.38	34
93.4	26
93.42	22
93.44	24
93.46	37
93.48	21
93.5	30
93.52	29
93.54	43
93.56	36
93.58	32
93.6	33
93.62	26
93.64	32
93.66	24
93.68	38
93.7	28
93.72	25
93.74	29
93.76	23
93.78	34
93.8	31
93.82	23
93.84	44
93.86	36
93.88	31
93.9	25
93.92	25
93.94	22
93.96	36
93.98	34
94	24
94.02	29
94.04	17
94.06	35
94.08	24
94.1	31
94.12	28
94.14	27
94.16	29
94.18	28
94.2	29
94.22	21
94.24	27
94.26	18
94.28	23
94.3	25
94.32	22
94.34	21
94.36	27
94.38	26
94.4	28
94.42	32
94.44	26
94.46	24
94.48	36
94.5	28
94.52	23
94.54	34
94.56	31
94.58	18
94.6	25
94.62	22
94.64	30
94.66	19
94.68	31
94.7	28
94.72	29
94.74	40
94.76	30
94.78	26
94.8	36
94.82	36
94.84	30
94.86	22
94.88	27
94.9	24
94.92	23
94.94	33
94.96	26
94.98	28
95	23
95.02	25
95.04	32
95.06	24
95.08	22
95.1	20
95.12	31
95.14	20
95.16	37
95.18	39
95.2	25
95.22	29
95.24	35
95.26	31
95.28	25
95.3	26
95.32	26
95.34	32
95.36	21
95.38	22
95.4	38
95.42	25
95.44	27
95.46	31
95.48	25
95.5	36
95.52	32
95.54	37
95.56	18
95.58	34
95.6	46
95.62	37
95.64	40
95.66	40
95.68	39
95.7	48
95.72	34
95.74	40
95.76	42
95.78	31
95.8	35
95.82	31
95.84	29
95.86	35
95.88	26
95.9	31
95.92	41
95.94	29
95.96	29
95.98	32
96	37
96.02	38
96.04	34
96.06	43
96.08	35
96.1	28
96.12	37
96.14	27
96.16	29
96.18	34
96.2	33
96.22	38
96.24	49
96.26	35
96.28	36
96.3	37
96.32	38
96.34	27
96.36	40
96.38	31
96.4	35
96.42	41
96.44	43
96.46	34
96.48	37
96.5	27
96.52	38
96.54	32
96.56	33
96.58	21
96.6	25
96.62	27
96.64	38
96.66	34
96.68	30
96.7	34
96.72	33
96.74	29
96.76	31
96.78	40
96.8	36
96.82	42
96.84	31
96.86	44
96.88	35
96.9	27
96.92	29
96.94	31
96.96	40
96.98	41
97	57
97.02	41
97.04	27
97.06	34
97.08	44
97.1	37
97.12	24
97.14	24
97.16	35
97.18	27
97.2	26
97.22	35
97.24	29
97.26	31
97.28	34
97.3	40
97.32	24
97.34	44
97.36	30
97.38	28
97.4	33
97.42	37
97.44	28
97.46	23
97.48	27
97.5	31
97.52	35
97.54	28
97.56	23
97.58	23
97.6	24
97.62	19
97.64	23
97.66	23
97.68	22
97.7	22
97.72	30
97.74	23
97.76	34
97.78	36
97.8	19
97.82	28
97.84	33
97.86	29
97.88	34
97.9	19
97.92	37
97.94	27
97.96	30
97.98	22
98	32
98.02	26
98.04	18
98.06	28
98.08	26
98.1	22
98.12	25
98.14	26
98.16	28
98.18	27
98.2	25
98.22	28
98.24	31
98.26	23
98.28	30
98.3	32
98.32	29
98.34	29
98.36	31
98.38	31
98.4	22
98.42	28
98.44	26
98.46	24
98.48	21
98.5	25
98.52	23
98.54	17
98.56	17
98.58	20
98.6	26
98.62	31
98.64	24
98.66	28
98.68	36
98.7	27
98.72	29
98.74	25
98.76	26
98.78	26
98.8	21
98.82	26
98.84	23
98.86	22
98.88	26
98.9	28
98.92	17
98.94	31
98.96	32
98.98	22
99	33
99.02	32
99.04	29
99.06	30
99.08	23
99.1	24
99.12	27
99.14	27
99.16	24
99.18	25
99.2	26
99.22	13
99.24	26
99.26	34
99.28	25
99.3	23
99.32	21
99.34	24
99.36	32
99.38	31
99.4	36
99.42	28
99.44	30
99.46	33
99.48	36
99.5	27
99.52	26
99.54	27
99.56	30
99.58	28
99.6	28
99.62	18
99.64	28
99.66	24
99.68	34
99.7	33
99.72	30
99.74	29
99.76	28
99.78	21
99.8	25
99.82	29
99.84	29
99.86	19
99.88	26
99.9	25
99.92	27
99.94	36
99.96	29
99.98	19
100	15
