0.10000 2670490.000
0.10500 2643040.000
0.11000 2701220.000
0.11500 2667930.000
0.12000 2692680.000
0.12500 2713700.000
0.13000 2719910.000
0.13500 2720560.000
0.14000 2726770.000
0.14500 2748600.000
0.15000 2762470.000
0.15500 2751300.000
0.16000 2733780.000
0.16500 2736990.000
0.17000 2730050.000
0.17500 2700780.000
0.18000 2694360.000
0.18500 2673920.000
0.19000 2642890.000
0.19500 2627850.000
0.20000 2604280.000
0.20500 2543900.000
0.21000 2500100.000
0.21500 2457030.000
0.22000 2437540.000
0.22500 2389580.000
0.23000 2353590.000
0.23500 2304460.000
0.24000 2256580.000
0.24500 2227380.000
0.25000 2217520.000
0.25500 2177010.000
0.26000 2161170.000
0.26500 2151020.000
0.27000 2139050.000
0.27500 2156860.000
0.28000 2128020.000
0.28500 2149490.000
0.29000 2142920.000
0.29500 2158680.000
0.30000 2205990.000
0.30500 2245190.000
0.31000 2293220.000
0.31500 2306800.000
0.32000 2354250.000
0.32500 2385710.000
0.33000 2459950.000
0.33500 2529300.000
0.34000 2527040.000
0.34500 2618290.000
0.35000 2649020.000
0.35500 2722170.000
0.36000 2755750.000
0.36500 2807730.000
0.37000 2878610.000
0.37500 2924890.000
0.38000 2982490.000
0.38500 3004680.000
0.39000 3056580.000
0.39500 3090090.000
0.40000 3152720.000
0.40500 3191200.000
0.41000 3214340.000
0.41500 3272880.000
0.42000 3319750.000
0.42500 3319160.000
0.43000 3354500.000
0.43500 3405300.000
0.44000 3429610.000
0.44500 3417280.000
0.45000 3513560.000
0.45500 3472170.000
0.46000 3530280.000
0.46500 3548970.000
0.47000 3560430.000
0.47500 3549410.000
0.48000 3592700.000
0.48500 3587290.000
0.49000 3611750.000
0.49500 3633870.000
0.50000 3608970.000
0.50500 3627810.000
0.51000 3613870.000
0.51500 3647520.000
0.52000 3655330.000
0.52500 3658760.000
0.53000 3635110.000
0.53500 3667590.000
0.54000 3646200.000
0.54500 3627590.000
0.55000 3655620.000
0.55500 3601160.000
0.56000 3600580.000
0.56500 3618760.000
0.57000 3601670.000
0.57500 3593210.000
0.58000 3590580.000
0.58500 3540720.000
0.59000 3538020.000
0.59500 3538530.000
0.60000 3503560.000
0.60500 3466110.000
0.61000 3472320.000
0.61500 3448960.000
0.62000 3425820.000
0.62500 3398810.000
0.63000 3397060.000
0.63500 3372380.000
0.64000 3318870.000
0.64500 3312890.000
0.65000 3282660.000
0.65500 3253680.000
0.66000 3226310.000
0.66500 3210760.000
0.67000 3169950.000
0.67500 3155790.000
0.68000 3112790.000
0.68500 3093300.000
0.69000 3071040.000
0.69500 3045560.000
0.70000 3024030.000
0.70500 2979350.000
0.71000 2916570.000
0.71500 2896350.000
0.72000 2885030.000
0.72500 2828020.000
0.73000 2807510.000
0.73500 2779400.000
0.74000 2749550.000
0.74500 2740640.000
0.75000 2701510.000
0.75500 2679250.000
0.76000 2634570.000
0.76500 2607200.000
0.77000 2577850.000
0.77500 2545800.000
0.78000 2503830.000
0.78500 2470830.000
0.79000 2450250.000
0.79500 2423670.000
0.80000 2388560.000
0.80500 2388630.000
0.81000 2335120.000
0.81500 2323080.000
0.82000 2279210.000
0.82500 2273440.000
0.83000 2241900.000
0.83500 2201390.000
0.84000 2170510.000
0.84500 2149700.000
0.85000 2143350.000
0.85500 2110720.000
0.86000 2074000.000
0.86500 2049480.000
0.87000 2025530.000
0.87500 2008230.000
0.88000 1991730.000
0.88500 1956980.000
0.89000 1925300.000
0.89500 1892960.000
0.90000 1878140.000
0.90500 1839600.000
0.91000 1815730.000
0.91500 1776670.000
0.92000 1749300.000
0.92500 1751930.000
0.93000 1710390.000
0.93500 1687400.000
0.94000 1617460.000
0.94500 1614250.000
0.95000 1586000.000
0.95500 1569140.000
0.96000 1538110.000
0.96500 1498760.000
0.97000 1480290.000
0.97500 1446200.000
0.98000 1439560.000
0.98500 1386120.000
0.99000 1378390.000
0.99500 1324220.000
1.00000 1298960.000
1.00500 1275160.000
1.01000 1244430.000
1.01500 1221800.000
1.02000 1192890.000
1.02500 1173260.000
1.03000 1205020.000
1.03500 1175110.000
1.04000 1151330.000
1.04500 1129710.000
1.05000 1104120.000
1.05500 1072290.000
1.06000 1051110.000
1.06500 1022130.000
1.07000 997872.000
1.07500 973344.000
1.08000 948539.000
1.08500 917117.000
1.09000 893798.000
1.09500 874588.000
1.10000 841219.000
1.10500 820906.000
1.11000 793789.000
1.11500 771155.000
1.12000 749521.000
1.12500 723434.000
1.13000 701001.000
1.13500 678233.000
1.14000 650602.000
1.14500 632108.000
1.15000 607953.000
1.15500 595099.000
1.16000 569631.000
1.16500 548914.000
1.17000 527691.000
1.17500 508832.000
1.18000 491994.000
1.18500 474255.000
1.19000 455038.000
1.19500 438939.000
1.20000 423691.000
1.20500 409979.000
1.21000 391986.000
1.21500 377961.000
1.22000 363227.000
1.22500 351441.000
1.23000 336588.000
1.23500 322033.000
1.24000 310731.000
1.24500 299497.000
1.25000 285673.000
1.25500 277952.000
1.26000 268277.000
1.26500 254849.000
1.27000 247060.000
1.27500 237594.000
1.28000 228798.000
1.28500 219690.000
1.29000 211484.000
1.29500 207343.000
1.30000 198891.000
1.30500 190603.000
1.31000 184225.000
1.31500 178309.000
1.32000 171878.000
1.32500 168768.000
1.33000 159443.000
1.33500 156004.000
1.34000 151147.000
1.34500 153704.000
1.35000 150443.000
1.35500 147119.000
1.36000 142631.000
1.36500 138982.000
1.37000 135507.000
1.37500 131675.000
1.38000 128044.000
1.38500 124950.000
1.39000 121657.000
1.39500 118962.000
1.40000 115736.000
1.40500 113294.000
1.41000 110036.000
1.41500 107461.000
1.42000 104970.000
1.42500 101869.000
1.43000 100412.000
1.43500 97527.000
1.44000 94834.000
1.44500 92551.000
1.45000 90441.000
1.45500 88375.000
1.46000 86492.000
1.46500 84373.000
1.47000 82600.000
1.47500 80913.000
1.48000 79279.000
1.48500 77343.000
1.49000 75157.000
1.49500 74496.000
1.50000 72616.000
1.50500 70746.000
1.51000 69629.000
1.51500 68238.000
1.52000 66479.000
1.52500 65348.000
1.53000 64409.000
1.53500 62934.000
1.54000 61932.000
1.54500 60308.000
1.55000 59358.000
1.55500 57676.000
1.56000 56831.000
1.56500 56205.000
1.57000 54823.000
1.57500 54369.000
1.58000 53179.000
1.58500 52121.000
1.59000 51341.000
1.59500 50506.000
1.60000 49503.000
1.60500 48766.000
1.61000 47769.000
1.61500 46770.000
1.62000 46380.000
1.62500 45612.000
1.63000 44811.000
1.63500 43392.000
1.64000 42988.000
1.64500 42489.000
1.65000 41620.000
1.65500 40536.000
1.66000 40267.000
1.66500 39333.000
1.67000 38479.000
1.67500 37850.000
1.68000 37084.000
1.68500 36947.000
1.69000 35874.000
1.69500 35412.000
1.70000 34785.000
1.70500 34423.000
1.71000 33805.000
1.71500 33009.000
1.72000 32555.000
1.72500 31699.000
1.73000 31331.000
1.73500 30612.000
1.74000 30202.000
1.74500 29891.000
1.75000 29321.000
1.75500 28726.000
1.76000 28119.000
1.76500 27721.000
1.77000 27424.000
1.77500 26678.000
1.78000 26243.000
1.78500 25532.000
1.79000 25500.000
1.79500 24816.000
1.80000 24380.000
1.80500 24203.000
1.81000 23393.000
1.81500 23253.000
1.82000 22736.000
1.82500 22204.000
1.83000 22031.000
1.83500 21667.000
1.84000 21165.000
1.84500 20994.000
1.85000 20148.000
1.85500 19951.000
1.86000 19591.000
1.86500 19416.000
1.87000 19044.000
1.87500 18484.000
1.88000 18298.000
1.88500 18142.000
1.89000 17684.000
1.89500 17300.000
1.90000 16805.000
1.90500 16584.000
1.91000 16049.000
1.91500 16143.000
1.92000 15537.000
1.92500 15285.000
1.93000 15062.000
1.93500 14650.000
1.94000 14604.000
1.94500 14268.000
1.95000 13944.000
1.95500 13661.000
1.96000 13445.000
1.96500 13192.000
1.97000 12839.000
1.97500 12529.000
1.98000 12368.000
1.98500 12116.000
1.99000 12036.000
1.99500 11579.000
2.00000 11257.000
2.00500 11008.000
2.01000 10947.000
2.01500 10628.000
2.02000 10341.000
2.02500 10262.000
2.03000 9866.000
2.03500 9578.000
2.04000 9614.000
2.04500 9362.000
2.05000 9109.000
2.05500 8976.000
2.06000 8837.000
2.06500 8385.000
2.07000 8255.000
2.07500 8161.000
2.08000 7997.000
2.08500 7839.000
2.09000 7553.000
2.09500 7536.000
2.10000 7362.000
2.10500 7234.000
2.11000 7030.000
2.11500 6857.000
2.12000 6742.000
2.12500 6419.000
2.13000 6349.000
2.13500 6187.000
2.14000 6198.000
2.14500 6098.000
2.15000 5853.000
2.15500 5761.000
2.16000 5691.000
2.16500 5616.000
2.17000 5419.000
2.17500 5390.000
2.18000 5408.000
2.18500 5122.000
2.19000 5078.000
2.19500 5208.000
2.20000 5054.000
2.20500 4948.000
2.21000 4725.000
2.21500 4639.000
2.22000 4650.000
2.22500 4634.000
2.23000 4548.000
2.23500 4484.000
2.24000 4444.000
2.24500 4420.000
2.25000 4351.000
2.25500 4288.000
2.26000 4221.000
2.26500 4194.000
2.27000 4133.000
2.27500 4115.000
2.28000 4133.000
2.28500 4131.000
2.29000 4060.000
2.29500 3829.000
2.30000 3956.000
2.30500 3787.000
2.31000 3913.000
2.31500 3755.000
2.32000 3810.000
2.32500 3624.000
2.33000 3664.000
2.33500 3702.000
2.34000 3698.000
2.34500 3631.000
2.35000 3809.000
2.35500 3539.000
2.36000 3480.000
2.36500 3558.000
2.37000 3515.000
2.37500 3394.000
2.38000 3354.000
2.38500 3398.000
2.39000 3289.000
2.39500 3319.000
2.40000 3353.000
2.40500 3245.000
2.41000 3138.000
2.41500 3170.000
2.42000 3118.000
2.42500 2965.000
2.43000 3075.000
2.43500 3058.000
2.44000 2978.000
2.44500 2936.000
2.45000 2799.000
2.45500 2889.000
2.46000 2742.000
2.46500 2830.000
2.47000 2678.000
2.47500 2606.000
2.48000 2652.000
2.48500 2636.000
2.49000 2588.000
2.49500 2503.000
2.50000 2533.000
2.50500 2443.000
2.51000 2396.000
2.51500 2427.000
2.52000 2299.000
2.52500 2291.000
2.53000 2320.000
2.53500 2242.000
2.54000 2215.000
2.54500 2262.000
2.55000 2194.000
2.55500 2145.000
2.56000 2140.000
2.56500 2097.000
2.57000 2107.000
2.57500 1997.000
2.58000 1975.000
2.58500 2050.000
2.59000 2098.000
2.59500 1994.000
2.60000 1976.000
2.60500 1888.000
2.61000 1962.000
2.61500 1868.000
2.62000 1873.000
2.62500 1842.000
2.63000 1866.000
2.63500 1869.000
2.64000 1833.000
2.64500 1879.000
2.65000 1745.000
2.65500 1817.000
2.66000 1788.000
2.66500 1732.000
2.67000 1763.000
2.67500 1713.000
2.68000 1694.000
2.68500 1715.000
2.69000 1677.000
2.69500 1696.000
2.70000 1633.000
2.70500 1620.000
2.71000 1679.000
2.71500 1538.000
2.72000 1659.000
2.72500 1648.000
2.73000 1565.000
2.73500 1569.000
2.74000 1606.000
2.74500 1474.000
2.75000 1590.000
2.75500 1476.000
2.76000 1444.000
2.76500 1503.000
2.77000 1443.000
2.77500 1446.000
2.78000 1382.000
2.78500 1366.000
2.79000 1409.000
2.79500 1321.000
2.80000 1363.000
2.80500 1331.000
2.81000 1273.000
2.81500 1251.000
2.82000 1279.000
2.82500 1226.000
2.83000 1255.000
2.83500 1239.000
2.84000 1151.000
2.84500 1141.000
2.85000 1175.000
2.85500 1126.000
2.86000 1150.000
2.86500 1150.000
2.87000 1093.000
2.87500 1068.000
2.88000 1095.000
2.88500 1041.000
2.89000 1064.000
2.89500 1015.000
2.90000 998.000
2.90500 963.000
2.91000 955.000
2.91500 992.000
2.92000 938.000
2.92500 920.000
2.93000 971.000
2.93500 940.000
2.94000 908.000
2.94500 907.000
2.95000 914.000
2.95500 865.000
2.96000 831.000
2.96500 846.000
2.97000 853.000
2.97500 839.000
2.98000 830.000
2.98500 792.000
2.99000 809.000
2.99500 801.000
3.00000 789.000
3.00500 842.000
3.01000 782.000
3.01500 790.000
3.02000 751.000
3.02500 802.000
3.03000 781.000
3.03500 765.000
3.04000 784.000
3.04500 702.000
3.05000 782.000
3.05500 722.000
3.06000 775.000
3.06500 701.000
3.07000 744.000
3.07500 707.000
3.08000 748.000
3.08500 679.000
3.09000 711.000
3.09500 712.000
3.10000 679.000
3.10500 716.000
3.11000 638.000
3.11500 699.000
3.12000 679.000
3.12500 674.000
3.13000 636.000
3.13500 688.000
3.14000 666.000
3.14500 641.000
3.15000 660.000
3.15500 615.000
3.16000 613.000
3.16500 635.000
3.17000 574.000
3.17500 635.000
3.18000 602.000
3.18500 605.000
3.19000 673.000
3.19500 587.000
3.20000 575.000
3.20500 574.000
3.21000 595.000
3.21500 588.000
3.22000 559.000
3.22500 569.000
3.23000 575.000
3.23500 592.000
3.24000 600.000
3.24500 571.000
3.25000 527.000
3.25500 557.000
3.26000 603.000
3.26500 533.000
3.27000 522.000
3.27500 514.000
3.28000 509.000
3.28500 510.000
3.29000 495.000
3.29500 504.000
3.30000 540.000
3.30500 518.000
3.31000 484.000
3.31500 491.000
3.32000 494.000
3.32500 467.000
3.33000 476.000
3.33500 473.000
3.34000 517.000
3.34500 510.000
3.35000 474.000
3.35500 487.000
3.36000 454.000
3.36500 467.000
3.37000 475.000
3.37500 432.000
3.38000 448.000
3.38500 442.000
3.39000 487.000
3.39500 488.000
3.40000 447.000
3.40500 427.000
3.41000 456.000
3.41500 430.000
3.42000 443.000
3.42500 424.000
3.43000 443.000
3.43500 439.000
3.44000 456.000
3.44500 434.000
3.45000 442.000
3.45500 440.000
3.46000 419.000
3.46500 414.000
3.47000 402.000
3.47500 456.000
3.48000 433.000
3.48500 432.000
3.49000 437.000
3.49500 437.000
3.50000 467.000
3.50500 393.000
3.51000 428.000
3.51500 434.000
3.52000 438.000
3.52500 435.000
3.53000 415.000
3.53500 443.000
3.54000 458.000
3.54500 399.000
3.55000 392.000
3.55500 423.000
3.56000 386.000
3.56500 412.000
3.57000 398.000
3.57500 376.000
3.58000 425.000
3.58500 384.000
3.59000 410.000
3.59500 423.000
3.60000 387.000
3.60500 389.000
3.61000 350.000
3.61500 364.000
3.62000 387.000
3.62500 367.000
3.63000 363.000
3.63500 328.000
3.64000 359.000
3.64500 344.000
3.65000 320.000
3.65500 324.000
3.66000 284.000
3.66500 282.000
3.67000 323.000
3.67500 321.000
3.68000 313.000
3.68500 311.000
3.69000 293.000
3.69500 303.000
3.70000 310.000
3.70500 300.000
3.71000 266.000
3.71500 275.000
3.72000 297.000
3.72500 255.000
3.73000 286.000
3.73500 270.000
3.74000 299.000
3.74500 269.000
3.75000 262.000
3.75500 293.000
3.76000 279.000
3.76500 293.000
3.77000 232.000
3.77500 270.000
3.78000 281.000
3.78500 258.000
3.79000 303.000
3.79500 275.000
3.80000 267.000
3.80500 260.000
3.81000 296.000
3.81500 297.000
3.82000 247.000
3.82500 258.000
3.83000 276.000
3.83500 258.000
3.84000 257.000
3.84500 237.000
3.85000 265.000
3.85500 257.000
3.86000 261.000
3.86500 264.000
3.87000 264.000
3.87500 254.000
3.88000 273.000
3.88500 285.000
3.89000 265.000
3.89500 252.000
3.90000 250.000
3.90500 270.000
3.91000 261.000
3.91500 285.000
3.92000 265.000
3.92500 259.000
3.93000 234.000
3.93500 274.000
3.94000 270.000
3.94500 257.000
3.95000 255.000
3.95500 290.000
3.96000 229.000
3.96500 277.000
3.97000 272.000
3.97500 229.000
3.98000 217.000
3.98500 227.000
3.99000 243.000
3.99500 244.000
4.00000 255.000
4.00500 234.000
4.01000 219.000
4.01500 239.000
4.02000 230.000
4.02500 256.000
4.03000 233.000
4.03500 209.000
4.04000 245.000
4.04500 213.000
4.05000 245.000
4.05500 215.000
4.06000 216.000
4.06500 239.000
4.07000 197.000
4.07500 213.000
4.08000 208.000
4.08500 227.000
4.09000 207.000
4.09500 218.000
4.10000 186.000
4.10500 188.000
4.11000 220.000
4.11500 224.000
4.12000 193.000
4.12500 195.000
4.13000 192.000
4.13500 211.000
4.14000 197.000
4.14500 173.000
4.15000 176.000
4.15500 163.000
4.16000 190.000
4.16500 180.000
4.17000 169.000
4.17500 184.000
4.18000 185.000
4.18500 206.000
4.19000 196.000
4.19500 178.000
4.20000 176.000
4.20500 194.000
4.21000 190.000
4.21500 176.000
4.22000 202.000
4.22500 163.000
4.23000 190.000
4.23500 184.000
4.24000 161.000
4.24500 197.000
4.25000 185.000
4.25500 170.000
4.26000 193.000
4.26500 184.000
4.27000 177.000
4.27500 161.000
4.28000 190.000
4.28500 186.000
4.29000 187.000
4.29500 178.000
4.30000 166.000
4.30500 197.000
4.31000 190.000
4.31500 218.000
4.32000 177.000
4.32500 179.000
4.33000 192.000
4.33500 187.000
4.34000 181.000
4.34500 161.000
4.35000 186.000
4.35500 185.000
4.36000 208.000
4.36500 163.000
4.37000 181.000
4.37500 176.000
4.38000 192.000
4.38500 181.000
4.39000 185.000
4.39500 199.000
4.40000 196.000
4.40500 146.000
4.41000 184.000
4.41500 191.000
4.42000 176.000
4.42500 173.000
4.43000 188.000
4.43500 187.000
4.44000 157.000
4.44500 159.000
4.45000 141.000
4.45500 174.000
4.46000 157.000
4.46500 163.000
4.47000 117.000
4.47500 140.000
4.48000 157.000
4.48500 170.000
4.49000 171.000
4.49500 149.000
4.50000 138.000
4.50500 152.000
4.51000 154.000
4.51500 154.000
4.52000 159.000
4.52500 124.000
4.53000 132.000
4.53500 145.000
4.54000 132.000
4.54500 166.000
4.55000 147.000
4.55500 136.000
4.56000 149.000
4.56500 141.000
4.57000 138.000
4.57500 145.000
4.58000 141.000
4.58500 157.000
4.59000 145.000
4.59500 144.000
4.60000 134.000
4.60500 163.000
4.61000 150.000
4.61500 146.000
4.62000 141.000
4.62500 132.000
4.63000 136.000
4.63500 127.000
4.64000 136.000
4.64500 155.000
4.65000 135.000
4.65500 142.000
4.66000 138.000
4.66500 144.000
4.67000 138.000
4.67500 151.000
4.68000 137.000
4.68500 156.000
4.69000 145.000
4.69500 132.000
4.70000 141.000
4.70500 154.000
4.71000 148.000
4.71500 163.000
4.72000 137.000
4.72500 135.000
4.73000 154.000
4.73500 125.000
4.74000 151.000
4.74500 134.000
4.75000 143.000
4.75500 151.000
4.76000 126.000
4.76500 148.000
4.77000 119.000
4.77500 129.000
4.78000 156.000
4.78500 134.000
4.79000 140.000
4.79500 151.000
4.80000 136.000
4.80500 121.000
4.81000 113.000
4.81500 143.000
4.82000 140.000
4.82500 99.000
4.83000 129.000
4.83500 128.000
4.84000 121.000
4.84500 128.000
4.85000 121.000
4.85500 129.000
4.86000 116.000
4.86500 111.000
4.87000 120.000
4.87500 106.000
4.88000 153.000
4.88500 95.000
4.89000 134.000
4.89500 116.000
4.90000 109.000
4.90500 118.000
4.91000 125.000
4.91500 107.000
4.92000 114.000
4.92500 92.000
4.93000 120.000
4.93500 116.000
4.94000 116.000
4.94500 129.000
4.95000 133.000
4.95500 116.000
4.96000 113.000
4.96500 100.000
4.97000 138.000
4.97500 115.000
4.98000 113.000
4.98500 117.000
4.99000 103.000
4.99500 139.000
5.00000 118.000
5.00500 101.000
5.01000 112.000
5.01500 130.000
5.02000 125.000
5.02500 106.000
5.03000 130.000
5.03500 121.000
5.04000 116.000
5.04500 135.000
5.05000 123.000
5.05500 113.000
5.06000 120.000
5.06500 105.000
5.07000 115.000
5.07500 122.000
5.08000 142.000
5.08500 105.000
5.09000 115.000
5.09500 102.000
5.10000 112.000
5.10500 112.000
5.11000 154.000
5.11500 101.000
5.12000 121.000
5.12500 107.000
5.13000 115.000
5.13500 104.000
5.14000 115.000
5.14500 128.000
5.15000 92.000
5.15500 109.000
5.16000 114.000
5.16500 112.000
5.17000 107.000
5.17500 97.000
5.18000 99.000
5.18500 89.000
5.19000 101.000
5.19500 105.000
5.20000 116.000
5.20500 82.000
5.21000 83.000
5.21500 114.000
5.22000 92.000
5.22500 105.000
5.23000 110.000
5.23500 109.000
5.24000 107.000
5.24500 91.000
5.25000 105.000
5.25500 101.000
5.26000 106.000
5.26500 100.000
5.27000 119.000
5.27500 93.000
5.28000 113.000
5.28500 99.000
5.29000 88.000
5.29500 110.000
5.30000 115.000
5.30500 99.000
5.31000 128.000
5.31500 96.000
5.32000 108.000
5.32500 99.000
5.33000 102.000
5.33500 104.000
5.34000 112.000
5.34500 102.000
5.35000 106.000
5.35500 108.000
5.36000 121.000
5.36500 106.000
5.37000 94.000
5.37500 114.000
5.38000 119.000
5.38500 110.000
5.39000 104.000
5.39500 122.000
5.40000 115.000
5.40500 102.000
5.41000 94.000
5.41500 110.000
5.42000 110.000
5.42500 101.000
5.43000 107.000
5.43500 124.000
5.44000 125.000
5.44500 119.000
5.45000 126.000
5.45500 113.000
5.46000 103.000
5.46500 118.000
5.47000 105.000
5.47500 126.000
5.48000 117.000
5.48500 110.000
5.49000 113.000
5.49500 119.000
5.50000 108.000
5.50500 104.000
5.51000 116.000
5.51500 118.000
5.52000 125.000
5.52500 101.000
5.53000 118.000
5.53500 88.000
5.54000 110.000
5.54500 125.000
5.55000 107.000
5.55500 110.000
5.56000 114.000
5.56500 117.000
5.57000 119.000
5.57500 126.000
5.58000 108.000
5.58500 104.000
5.59000 111.000
5.59500 124.000
5.60000 102.000
5.60500 130.000
5.61000 101.000
5.61500 138.000
5.62000 124.000
5.62500 86.000
5.63000 108.000
5.63500 97.000
5.64000 126.000
5.64500 112.000
5.65000 118.000
5.65500 123.000
5.66000 110.000
5.66500 106.000
5.67000 112.000
5.67500 114.000
5.68000 136.000
5.68500 123.000
5.69000 122.000
5.69500 108.000
5.70000 145.000
5.70500 112.000
5.71000 109.000
5.71500 126.000
5.72000 119.000
5.72500 129.000
5.73000 116.000
5.73500 129.000
5.74000 148.000
5.74500 136.000
5.75000 129.000
5.75500 130.000
5.76000 119.000
5.76500 149.000
5.77000 136.000
5.77500 133.000
5.78000 134.000
5.78500 143.000
5.79000 105.000
5.79500 146.000
5.80000 140.000
5.80500 139.000
5.81000 142.000
5.81500 148.000
5.82000 141.000
5.82500 140.000
5.83000 138.000
5.83500 135.000
5.84000 166.000
5.84500 159.000
5.85000 157.000
5.85500 163.000
5.86000 151.000
5.86500 156.000
5.87000 181.000
5.87500 146.000
5.88000 151.000
5.88500 152.000
5.89000 149.000
5.89500 148.000
5.90000 163.000
5.90500 148.000
5.91000 158.000
5.91500 164.000
5.92000 146.000
5.92500 155.000
5.93000 169.000
5.93500 179.000
5.94000 169.000
5.94500 166.000
5.95000 171.000
5.95500 172.000
5.96000 174.000
5.96500 158.000
5.97000 194.000
5.97500 164.000
5.98000 167.000
5.98500 168.000
5.99000 183.000
5.99500 178.000
6.00000 170.000
6.00500 183.000
6.01000 195.000
6.01500 197.000
6.02000 174.000
6.02500 213.000
6.03000 178.000
6.03500 184.000
6.04000 192.000
6.04500 196.000
6.05000 189.000
6.05500 195.000
6.06000 179.000
6.06500 198.000
6.07000 187.000
6.07500 190.000
6.08000 215.000
6.08500 188.000
6.09000 214.000
6.09500 210.000
6.10000 214.000
6.10500 200.000
6.11000 230.000
6.11500 222.000
6.12000 234.000
6.12500 229.000
6.13000 206.000
6.13500 240.000
6.14000 230.000
6.14500 232.000
6.15000 228.000
6.15500 207.000
6.16000 242.000
6.16500 236.000
6.17000 252.000
6.17500 243.000
6.18000 226.000
6.18500 225.000
6.19000 239.000
6.19500 275.000
6.20000 237.000
6.20500 238.000
6.21000 212.000
6.21500 248.000
6.22000 240.000
6.22500 246.000
6.23000 248.000
6.23500 259.000
6.24000 261.000
6.24500 291.000
6.25000 271.000
6.25500 289.000
6.26000 275.000
6.26500 255.000
6.27000 291.000
6.27500 273.000
6.28000 285.000
6.28500 260.000
6.29000 282.000
6.29500 280.000
6.30000 301.000
6.30500 283.000
6.31000 294.000
6.31500 298.000
6.32000 291.000
6.32500 279.000
6.33000 291.000
6.33500 297.000
6.34000 312.000
6.34500 304.000
6.35000 273.000
6.35500 302.000
6.36000 341.000
6.36500 318.000
6.37000 326.000
6.37500 324.000
6.38000 315.000
6.38500 300.000
6.39000 315.000
6.39500 296.000
6.40000 314.000
6.40500 325.000
6.41000 337.000
6.41500 340.000
6.42000 314.000
6.42500 364.000
6.43000 338.000
6.43500 311.000
6.44000 326.000
6.44500 349.000
6.45000 308.000
6.45500 336.000
6.46000 345.000
6.46500 343.000
6.47000 300.000
6.47500 359.000
6.48000 366.000
6.48500 371.000
6.49000 351.000
6.49500 343.000
6.50000 372.000
6.50500 400.000
6.51000 411.000
6.51500 412.000
6.52000 331.000
6.52500 365.000
6.53000 363.000
6.53500 346.000
6.54000 347.000
6.54500 378.000
6.55000 402.000
6.55500 431.000
6.56000 378.000
6.56500 378.000
6.57000 407.000
6.57500 414.000
6.58000 421.000
6.58500 454.000
6.59000 423.000
6.59500 452.000
6.60000 462.000
6.60500 496.000
6.61000 444.000
6.61500 480.000
6.62000 469.000
6.62500 467.000
6.63000 463.000
6.63500 488.000
6.64000 500.000
6.64500 536.000
6.65000 539.000
6.65500 501.000
6.66000 519.000
6.66500 515.000
6.67000 555.000
6.67500 563.000
6.68000 599.000
6.68500 591.000
6.69000 548.000
6.69500 553.000
6.70000 609.000
6.70500 533.000
6.71000 561.000
6.71500 580.000
6.72000 603.000
6.72500 624.000
6.73000 604.000
6.73500 694.000
6.74000 710.000
6.74500 655.000
6.75000 658.000
6.75500 741.000
6.76000 667.000
6.76500 752.000
6.77000 710.000
6.77500 726.000
6.78000 762.000
6.78500 662.000
6.79000 702.000
6.79500 745.000
6.80000 779.000
6.80500 760.000
6.81000 764.000
6.81500 860.000
6.82000 863.000
6.82500 899.000
6.83000 929.000
6.83500 979.000
6.84000 975.000
6.84500 996.000
6.85000 923.000
6.85500 963.000
6.86000 996.000
6.86500 985.000
6.87000 1008.000
6.87500 1016.000
6.88000 1039.000
6.88500 1052.000
6.89000 1044.000
6.89500 1154.000
6.90000 1202.000
6.90500 1225.000
6.91000 1302.000
6.91500 1226.000
6.92000 1397.000
6.92500 1357.000
6.93000 1376.000
6.93500 1468.000
6.94000 1349.000
6.94500 1375.000
6.95000 1337.000
6.95500 1373.000
6.96000 1339.000
6.96500 1388.000
6.97000 1389.000
6.97500 1544.000
6.98000 1576.000
6.98500 1678.000
6.99000 1769.000
6.99500 1847.000
7.00000 1961.000
7.00500 1932.000
7.01000 2011.000
7.01500 2030.000
7.02000 1990.000
7.02500 2017.000
7.03000 1942.000
7.03500 2020.000
7.04000 1913.000
7.04500 1943.000
7.05000 2100.000
7.05500 2019.000
7.06000 2149.000
7.06500 2179.000
7.07000 2391.000
7.07500 2322.000
7.08000 2623.000
7.08500 2810.000
7.09000 2860.000
7.09500 2922.000
7.10000 2955.000
7.10500 2949.000
7.11000 2846.000
7.11500 2851.000
7.12000 2698.000
7.12500 2733.000
7.13000 2778.000
7.13500 2655.000
7.14000 2593.000
7.14500 2762.000
7.15000 2939.000
7.15500 2946.000
7.16000 3184.000
7.16500 3492.000
7.17000 3649.000
7.17500 3819.000
7.18000 4147.000
7.18500 4049.000
7.19000 4265.000
7.19500 4093.000
7.20000 3995.000
7.20500 3979.000
7.21000 3757.000
7.21500 3698.000
7.22000 3489.000
7.22500 3492.000
7.23000 3369.000
7.23500 3452.000
7.24000 3572.000
7.24500 3846.000
7.25000 4118.000
7.25500 4371.000
7.26000 4834.000
7.26500 5053.000
7.27000 5423.000
7.27500 5639.000
7.28000 5693.000
7.28500 5711.000
7.29000 5618.000
7.29500 5435.000
7.30000 5183.000
7.30500 4910.000
7.31000 4481.000
7.31500 4302.000
7.32000 4072.000
7.32500 4004.000
7.33000 4105.000
7.33500 4341.000
7.34000 4576.000
7.34500 5004.000
7.35000 5518.000
7.35500 6105.000
7.36000 6578.000
7.36500 7326.000
7.37000 7575.000
7.37500 7841.000
7.38000 7947.000
7.38500 8055.000
7.39000 7784.000
7.39500 7370.000
7.40000 6894.000
7.40500 6469.000
7.41000 5931.000
7.41500 5578.000
7.42000 5026.000
7.42500 4809.000
7.43000 4869.000
7.43500 5000.000
7.44000 5570.000
7.44500 6529.000
7.45000 7529.000
7.45500 8868.000
7.46000 10786.000
7.46500 12022.000
7.47000 13886.000
7.47500 15685.000
7.48000 17310.000
7.48500 19047.000
7.49000 20359.000
7.49500 21376.000
7.50000 22560.000
7.50500 22938.000
7.51000 23222.000
7.51500 23383.000
7.52000 22888.000
7.52500 22436.000
7.53000 21405.000
7.53500 20638.000
7.54000 19343.000
7.54500 18212.000
7.55000 16676.000
7.55500 15418.000
7.56000 13765.000
7.56500 12387.000
7.57000 11050.000
7.57500 9847.000
7.58000 8578.000
7.58500 7457.000
7.59000 6297.000
7.59500 5212.000
7.60000 4457.000
7.60500 3652.000
7.61000 2991.000
7.61500 2390.000
7.62000 1969.000
7.62500 1511.000
7.63000 1139.000
7.63500 971.000
7.64000 775.000
7.64500 625.000
7.65000 505.000
7.65500 448.000
7.66000 389.000
7.66500 359.000
7.67000 338.000
7.67500 316.000
7.68000 270.000
7.68500 270.000
7.69000 306.000
7.69500 244.000
7.70000 237.000
7.70500 214.000
7.71000 211.000
7.71500 204.000
7.72000 174.000
7.72500 171.000
7.73000 181.000
7.73500 157.000
7.74000 176.000
7.74500 144.000
7.75000 153.000
7.75500 165.000
7.76000 158.000
7.76500 155.000
7.77000 147.000
7.77500 132.000
7.78000 125.000
7.78500 129.000
7.79000 140.000
7.79500 122.000
7.80000 137.000
7.80500 112.000
7.81000 112.000
7.81500 112.000
7.82000 108.000
7.82500 106.000
7.83000 130.000
7.83500 109.000
7.84000 109.000
7.84500 96.000
7.85000 117.000
7.85500 105.000
7.86000 95.000
7.86500 98.000
7.87000 90.000
7.87500 76.000
7.88000 107.000
7.88500 90.000
7.89000 77.000
7.89500 75.000
7.90000 82.000
7.90500 74.000
7.91000 77.000
7.91500 89.000
7.92000 75.000
7.92500 75.000
7.93000 61.000
7.93500 91.000
7.94000 71.000
7.94500 80.000
7.95000 70.000
7.95500 70.000
7.96000 77.000
7.96500 66.000
7.97000 91.000
7.97500 59.000
7.98000 75.000
7.98500 61.000
7.99000 74.000
7.99500 69.000
8.00000 52.000
8.00500 51.000
8.01000 46.000
8.01500 49.000
8.02000 60.000
8.02500 58.000
8.03000 54.000
8.03500 43.000
8.04000 52.000
8.04500 49.000
8.05000 45.000
8.05500 60.000
8.06000 60.000
8.06500 44.000
8.07000 62.000
8.07500 64.000
8.08000 41.000
8.08500 55.000
8.09000 48.000
8.09500 53.000
8.10000 44.000
8.10500 39.000
8.11000 40.000
8.11500 41.000
8.12000 46.000
8.12500 31.000
8.13000 32.000
8.13500 46.000
8.14000 44.000
8.14500 38.000
8.15000 36.000
8.15500 37.000
8.16000 32.000
8.16500 42.000
8.17000 47.000
8.17500 39.000
8.18000 42.000
8.18500 42.000
8.19000 35.000
8.19500 45.000
8.20000 38.000
8.20500 36.000
8.21000 50.000
8.21500 46.000
8.22000 40.000
8.22500 40.000
8.23000 35.000
8.23500 36.000
8.24000 46.000
8.24500 37.000
8.25000 32.000
8.25500 38.000
8.26000 29.000
8.26500 37.000
8.27000 37.000
8.27500 37.000
8.28000 33.000
8.28500 27.000
8.29000 25.000
8.29500 36.000
8.30000 46.000
8.30500 30.000
8.31000 42.000
8.31500 31.000
8.32000 32.000
8.32500 27.000
8.33000 30.000
8.33500 34.000
8.34000 34.000
8.34500 33.000
8.35000 22.000
8.35500 37.000
8.36000 31.000
8.36500 27.000
8.37000 28.000
8.37500 31.000
8.38000 36.000
8.38500 29.000
8.39000 51.000
8.39500 37.000
8.40000 30.000
8.40500 35.000
8.41000 23.000
8.41500 25.000
8.42000 43.000
8.42500 43.000
8.43000 37.000
8.43500 22.000
8.44000 35.000
8.44500 28.000
8.45000 31.000
8.45500 31.000
8.46000 34.000
8.46500 26.000
8.47000 23.000
8.47500 30.000
8.48000 29.000
8.48500 28.000
8.49000 31.000
8.49500 30.000
8.50000 43.000
8.50500 29.000
8.51000 20.000
8.51500 24.000
8.52000 33.000
8.52500 28.000
8.53000 26.000
8.53500 20.000
8.54000 31.000
8.54500 45.000
8.55000 38.000
8.55500 37.000
8.56000 30.000
8.56500 27.000
8.57000 27.000
8.57500 25.000
8.58000 27.000
8.58500 38.000
8.59000 24.000
8.59500 24.000
8.60000 37.000
8.60500 24.000
8.61000 27.000
8.61500 23.000
8.62000 24.000
8.62500 31.000
8.63000 33.000
8.63500 28.000
8.64000 41.000
8.64500 21.000
8.65000 23.000
8.65500 24.000
8.66000 30.000
8.66500 21.000
8.67000 26.000
8.67500 31.000
8.68000 15.000
8.68500 27.000
8.69000 24.000
8.69500 28.000
8.70000 19.000
8.70500 19.000
8.71000 33.000
8.71500 33.000
8.72000 22.000
8.72500 28.000
8.73000 22.000
8.73500 28.000
8.74000 35.000
8.74500 28.000
8.75000 28.000
8.75500 23.000
8.76000 28.000
8.76500 25.000
8.77000 27.000
8.77500 22.000
8.78000 25.000
8.78500 28.000
8.79000 21.000
8.79500 25.000
8.80000 16.000
8.80500 38.000
8.81000 14.000
8.81500 32.000
8.82000 28.000
8.82500 20.000
8.83000 23.000
8.83500 31.000
8.84000 22.000
8.84500 20.000
8.85000 24.000
8.85500 22.000
8.86000 27.000
8.86500 21.000
8.87000 25.000
8.87500 31.000
8.88000 19.000
8.88500 27.000
8.89000 24.000
8.89500 24.000
8.90000 29.000
8.90500 27.000
8.91000 27.000
8.91500 22.000
8.92000 24.000
8.92500 22.000
8.93000 26.000
8.93500 29.000
8.94000 24.000
8.94500 39.000
8.95000 23.000
8.95500 30.000
8.96000 23.000
8.96500 23.000
8.97000 23.000
8.97500 29.000
8.98000 30.000
8.98500 25.000
8.99000 22.000
8.99500 25.000
9.00000 20.000
9.00500 26.000
9.01000 33.000
9.01500 31.000
9.02000 21.000
9.02500 28.000
9.03000 29.000
9.03500 22.000
9.04000 20.000
9.04500 23.000
9.05000 31.000
9.05500 29.000
9.06000 18.000
9.06500 24.000
9.07000 21.000
9.07500 25.000
9.08000 24.000
9.08500 28.000
9.09000 28.000
9.09500 19.000
9.10000 28.000
9.10500 25.000
9.11000 26.000
9.11500 26.000
9.12000 23.000
9.12500 25.000
9.13000 35.000
9.13500 27.000
9.14000 29.000
9.14500 22.000
9.15000 26.000
9.15500 27.000
9.16000 24.000
9.16500 26.000
9.17000 21.000
9.17500 20.000
9.18000 34.000
9.18500 14.000
9.19000 24.000
9.19500 28.000
9.20000 23.000
9.20500 21.000
9.21000 20.000
9.21500 18.000
9.22000 23.000
9.22500 24.000
9.23000 24.000
9.23500 25.000
9.24000 21.000
9.24500 20.000
9.25000 17.000
9.25500 26.000
9.26000 21.000
9.26500 32.000
9.27000 28.000
9.27500 20.000
9.28000 29.000
9.28500 18.000
9.29000 26.000
9.29500 27.000
9.30000 18.000
9.30500 25.000
9.31000 26.000
9.31500 24.000
9.32000 32.000
9.32500 19.000
9.33000 22.000
9.33500 25.000
9.34000 37.000
9.34500 25.000
9.35000 28.000
9.35500 27.000
9.36000 17.000
9.36500 24.000
9.37000 28.000
9.37500 24.000
9.38000 32.000
9.38500 27.000
9.39000 25.000
9.39500 29.000
9.40000 29.000
9.40500 18.000
9.41000 24.000
9.41500 39.000
9.42000 22.000
9.42500 29.000
9.43000 22.000
9.43500 20.000
9.44000 19.000
9.44500 22.000
9.45000 16.000
9.45500 30.000
9.46000 20.000
9.46500 28.000
9.47000 28.000
9.47500 33.000
9.48000 25.000
9.48500 25.000
9.49000 21.000
9.49500 21.000
9.50000 22.000
9.50500 24.000
9.51000 17.000
9.51500 22.000
9.52000 16.000
9.52500 30.000
9.53000 28.000
9.53500 21.000
9.54000 17.000
9.54500 26.000
9.55000 27.000
9.55500 24.000
9.56000 26.000
9.56500 20.000
9.57000 22.000
9.57500 20.000
9.58000 27.000
9.58500 23.000
9.59000 28.000
9.59500 23.000
9.60000 23.000
9.60500 25.000
9.61000 28.000
9.61500 27.000
9.62000 33.000
9.62500 25.000
9.63000 17.000
9.63500 17.000
9.64000 28.000
9.64500 22.000
9.65000 20.000
9.65500 21.000
9.66000 24.000
9.66500 24.000
9.67000 36.000
9.67500 27.000
9.68000 28.000
9.68500 24.000
9.69000 26.000
9.69500 23.000
9.70000 24.000
9.70500 20.000
9.71000 36.000
9.71500 31.000
9.72000 26.000
9.72500 25.000
9.73000 12.000
9.73500 25.000
9.74000 27.000
9.74500 27.000
9.75000 22.000
9.75500 28.000
9.76000 31.000
9.76500 23.000
9.77000 33.000
9.77500 25.000
9.78000 15.000
9.78500 21.000
9.79000 21.000
9.79500 21.000
9.80000 20.000
9.80500 34.000
9.81000 25.000
9.81500 17.000
9.82000 22.000
9.82500 20.000
9.83000 28.000
9.83500 20.000
9.84000 22.000
9.84500 36.000
9.85000 20.000
9.85500 27.000
9.86000 26.000
9.86500 33.000
9.87000 19.000
9.87500 23.000
9.88000 20.000
9.88500 32.000
9.89000 19.000
9.89500 22.000
9.90000 26.000
9.90500 35.000
9.91000 25.000
9.91500 28.000
9.92000 32.000
9.92500 24.000
9.93000 14.000
9.93500 30.000
9.94000 25.000
9.94500 23.000
9.95000 26.000
9.95500 23.000
9.96000 27.000
9.96500 33.000
9.97000 26.000
9.97500 27.000
9.98000 16.000
9.98500 28.000
9.99000 21.000
9.99500 23.000
10.00000 22.000
