10	2
10.01	1
10.02	0
10.03	2
10.04	5
10.05	3
10.06	3
10.07	1
10.08	4
10.09	3
10.1	5
10.11	2
10.12	2
10.13	2
10.14	3
10.15	1
10.16	4
10.17	2
10.18	3
10.19	0
10.2	2
10.21	2
10.22	2
10.23	3
10.24	1
10.25	8
10.26	2
10.27	1
10.28	3
10.29	3
10.3	3
10.31	3
10.32	2
10.33	2
10.34	3
10.35	2
10.36	3
10.37	1
10.38	4
10.39	4
10.4	3
10.41	2
10.42	0
10.43	4
10.44	2
10.45	2
10.46	1
10.47	2
10.48	1
10.49	0
10.5	2
10.51	7
10.52	2
10.53	2
10.54	0
10.55	2
10.56	1
10.57	2
10.58	3
10.59	2
10.6	3
10.61	0
10.62	1
10.63	2
10.64	1
10.65	3
10.66	2
10.67	3
10.68	3
10.69	1
10.7	3
10.71	3
10.72	1
10.73	4
10.74	0
10.75	5
10.76	2
10.77	0
10.78	3
10.79	5
10.8	0
10.81	4
10.82	1
10.83	2
10.84	0
10.85	3
10.86	2
10.87	4
10.88	3
10.89	4
10.9	3
10.91	1
10.92	2
10.93	1
10.94	3
10.95	7
10.96	6
10.97	2
10.98	1
10.99	4
11	2
11.01	2
11.02	1
11.03	3
11.04	4
11.05	4
11.06	1
11.07	4
11.08	5
11.09	4
11.1	3
11.11	4
11.12	1
11.13	2
11.14	3
11.15	3
11.16	0
11.17	6
11.18	3
11.19	2
11.2	2
11.21	2
11.22	2
11.23	4
11.24	4
11.25	3
11.26	2
11.27	2
11.28	0
11.29	0
11.3	2
11.31	1
11.32	1
11.33	1
11.34	2
11.35	1
11.36	4
11.37	0
11.38	3
11.39	2
11.4	3
11.41	3
11.42	0
11.43	1
11.44	3
11.45	1
11.46	2
11.47	0
11.48	2
11.49	1
11.5	4
11.51	0
11.52	5
11.53	0
11.54	4
11.55	3
11.56	1
11.57	4
11.58	1
11.59	1
11.6	1
11.61	1
11.62	1
11.63	4
11.64	2
11.65	2
11.66	3
11.67	3
11.68	4
11.69	4
11.7	0
11.71	3
11.72	2
11.73	1
11.74	1
11.75	3
11.76	1
11.77	4
11.78	4
11.79	2
11.8	3
11.81	0
11.82	2
11.83	1
11.84	4
11.85	0
11.86	1
11.87	2
11.88	1
11.89	0
11.9	1
11.91	4
11.92	2
11.93	3
11.94	3
11.95	4
11.96	4
11.97	3
11.98	3
11.99	2
12	6
12.01	4
12.02	2
12.03	4
12.04	4
12.05	3
12.06	3
12.07	3
12.08	0
12.09	1
12.1	2
12.11	5
12.12	2
12.13	3
12.14	5
12.15	0
12.16	0
12.17	3
12.18	3
12.19	8
12.2	3
12.21	3
12.22	4
12.23	2
12.24	1
12.25	2
12.26	2
12.27	0
12.28	5
12.29	2
12.3	1
12.31	4
12.32	5
12.33	5
12.34	2
12.35	0
12.36	3
12.37	1
12.38	1
12.39	3
12.4	4
12.41	0
12.42	4
12.43	6
12.44	3
12.45	5
12.46	1
12.47	5
12.48	4
12.49	4
12.5	4
12.51	0
12.52	4
12.53	3
12.54	5
12.55	4
12.56	4
12.57	3
12.58	0
12.59	4
12.6	5
12.61	5
12.62	4
12.63	0
12.64	2
12.65	0
12.66	2
12.67	1
12.68	3
12.69	1
12.7	4
12.71	4
12.72	2
12.73	2
12.74	2
12.75	5
12.76	3
12.77	6
12.78	2
12.79	2
12.8	3
12.81	1
12.82	5
12.83	2
12.84	3
12.85	3
12.86	5
12.87	1
12.88	3
12.89	5
12.9	3
12.91	1
12.92	0
12.93	4
12.94	2
12.95	4
12.96	2
12.97	4
12.98	4
12.99	4
13	2
13.01	1
13.02	0
13.03	3
13.04	1
13.05	0
13.06	7
13.07	2
13.08	2
13.09	3
13.1	2
13.11	4
13.12	2
13.13	2
13.14	3
13.15	2
13.16	3
13.17	5
13.18	7
13.19	4
13.2	2
13.21	5
13.22	0
13.23	5
13.24	6
13.25	2
13.26	1
13.27	1
13.28	3
13.29	2
13.3	2
13.31	5
13.32	2
13.33	4
13.34	4
13.35	5
13.36	4
13.37	2
13.38	4
13.39	4
13.4	2
13.41	3
13.42	4
13.43	4
13.44	2
13.45	4
13.46	5
13.47	2
13.48	3
13.49	3
13.5	5
13.51	4
13.52	2
13.53	1
13.54	3
13.55	4
13.56	2
13.57	2
13.58	1
13.59	4
13.6	4
13.61	5
13.62	4
13.63	4
13.64	4
13.65	2
13.66	5
13.67	4
13.68	1
13.69	3
13.7	0
13.71	4
13.72	2
13.73	4
13.74	0
13.75	8
13.76	2
13.77	6
13.78	9
13.79	1
13.8	4
13.81	3
13.82	3
13.83	7
13.84	5
13.85	4
13.86	6
13.87	3
13.88	3
13.89	4
13.9	4
13.91	4
13.92	5
13.93	6
13.94	5
13.95	8
13.96	5
13.97	3
13.98	1
13.99	9
14	8
14.01	3
14.02	8
14.03	10
14.04	10
14.05	11
14.06	11
14.07	5
14.08	5
14.09	9
14.1	11
14.11	8
14.12	9
14.13	7
14.14	9
14.15	7
14.16	9
14.17	7
14.18	5
14.19	12
14.2	12
14.21	6
14.22	14
14.23	10
14.24	4
14.25	14
14.26	10
14.27	8
14.28	9
14.29	9
14.3	8
14.31	8
14.32	7
14.33	3
14.34	3
14.35	4
14.36	8
14.37	10
14.38	3
14.39	6
14.4	3
14.41	6
14.42	7
14.43	4
14.44	8
14.45	8
14.46	6
14.47	5
14.48	5
14.49	6
14.5	3
14.51	5
14.52	6
14.53	2
14.54	5
14.55	5
14.56	1
14.57	5
14.58	3
14.59	2
14.6	2
14.61	3
14.62	1
14.63	7
14.64	0
14.65	3
14.66	1
14.67	3
14.68	1
14.69	2
14.7	2
14.71	1
14.72	4
14.73	4
14.74	4
14.75	3
14.76	3
14.77	3
14.78	3
14.79	5
14.8	4
14.81	4
14.82	5
14.83	3
14.84	2
14.85	1
14.86	0
14.87	5
14.88	1
14.89	3
14.9	6
14.91	1
14.92	2
14.93	4
14.94	3
14.95	1
14.96	2
14.97	4
14.98	3
14.99	2
15	6
15.01	3
15.02	4
15.03	0
15.04	3
15.05	4
15.06	3
15.07	2
15.08	2
15.09	4
15.1	2
15.11	2
15.12	4
15.13	1
15.14	9
15.15	2
15.16	2
15.17	4
15.18	4
15.19	9
15.2	4
15.21	2
15.22	2
15.23	4
15.24	3
15.25	6
15.26	3
15.27	5
15.28	6
15.29	2
15.3	3
15.31	6
15.32	4
15.33	2
15.34	5
15.35	9
15.36	5
15.37	3
15.38	3
15.39	2
15.4	3
15.41	3
15.42	2
15.43	8
15.44	2
15.45	4
15.46	4
15.47	4
15.48	4
15.49	1
15.5	4
15.51	6
15.52	5
15.53	8
15.54	8
15.55	2
15.56	0
15.57	9
15.58	3
15.59	4
15.6	3
15.61	3
15.62	0
15.63	6
15.64	2
15.65	1
15.66	7
15.67	2
15.68	1
15.69	3
15.7	6
15.71	7
15.72	4
15.73	2
15.74	6
15.75	6
15.76	1
15.77	5
15.78	5
15.79	5
15.8	3
15.81	3
15.82	6
15.83	6
15.84	3
15.85	5
15.86	1
15.87	3
15.88	4
15.89	2
15.9	4
15.91	2
15.92	2
15.93	3
15.94	6
15.95	3
15.96	3
15.97	2
15.98	1
15.99	6
16	1
16.01	8
16.02	2
16.03	1
16.04	2
16.05	3
16.06	2
16.07	4
16.08	3
16.09	3
16.1	2
16.11	5
16.12	4
16.13	1
16.14	4
16.15	4
16.16	3
16.17	1
16.18	5
16.19	5
16.2	1
16.21	3
16.22	3
16.23	5
16.24	4
16.25	1
16.26	6
16.27	3
16.28	6
16.29	7
16.3	4
16.31	8
16.32	2
16.33	6
16.34	4
16.35	3
16.36	4
16.37	9
16.38	7
16.39	7
16.4	4
16.41	4
16.42	4
16.43	9
16.44	5
16.45	3
16.46	3
16.47	3
16.48	6
16.49	5
16.5	2
16.51	1
16.52	9
16.53	4
16.54	4
16.55	4
16.56	7
16.57	2
16.58	4
16.59	3
16.6	3
16.61	2
16.62	2
16.63	6
16.64	4
16.65	6
16.66	4
16.67	8
16.68	4
16.69	5
16.7	6
16.71	4
16.72	3
16.73	6
16.74	8
16.75	4
16.76	4
16.77	7
16.78	1
16.79	3
16.8	3
16.81	5
16.82	1
16.83	5
16.84	4
16.85	5
16.86	8
16.87	3
16.88	5
16.89	6
16.9	3
16.91	1
16.92	5
16.93	4
16.94	8
16.95	8
16.96	7
16.97	3
16.98	4
16.99	7
17	5
17.01	3
17.02	2
17.03	5
17.04	9
17.05	4
17.06	4
17.07	4
17.08	6
17.09	4
17.1	0
17.11	0
17.12	6
17.13	7
17.14	6
17.15	1
17.16	7
17.17	8
17.18	3
17.19	6
17.2	5
17.21	4
17.22	1
17.23	5
17.24	6
17.25	4
17.26	6
17.27	2
17.28	6
17.29	5
17.3	3
17.31	1
17.32	1
17.33	3
17.34	3
17.35	3
17.36	7
17.37	7
17.38	4
17.39	1
17.4	7
17.41	4
17.42	1
17.43	4
17.44	7
17.45	7
17.46	6
17.47	5
17.48	7
17.49	4
17.5	6
17.51	2
17.52	5
17.53	2
17.54	5
17.55	3
17.56	4
17.57	4
17.58	4
17.59	2
17.6	7
17.61	3
17.62	2
17.63	8
17.64	4
17.65	3
17.66	7
17.67	4
17.68	2
17.69	3
17.7	2
17.71	6
17.72	1
17.73	1
17.74	5
17.75	4
17.76	2
17.77	4
17.78	6
17.79	3
17.8	4
17.81	2
17.82	3
17.83	6
17.84	2
17.85	4
17.86	10
17.87	3
17.88	1
17.89	10
17.9	5
17.91	2
17.92	4
17.93	2
17.94	1
17.95	2
17.96	7
17.97	3
17.98	4
17.99	7
18	4
18.01	6
18.02	6
18.03	3
18.04	5
18.05	4
18.06	5
18.07	4
18.08	4
18.09	4
18.1	7
18.11	2
18.12	7
18.13	6
18.14	3
18.15	4
18.16	2
18.17	7
18.18	2
18.19	11
18.2	3
18.21	5
18.22	4
18.23	5
18.24	1
18.25	1
18.26	5
18.27	3
18.28	3
18.29	6
18.3	3
18.31	2
18.32	2
18.33	4
18.34	4
18.35	5
18.36	1
18.37	4
18.38	0
18.39	3
18.4	4
18.41	6
18.42	5
18.43	1
18.44	2
18.45	4
18.46	6
18.47	3
18.48	6
18.49	3
18.5	5
18.51	5
18.52	6
18.53	7
18.54	4
18.55	5
18.56	6
18.57	6
18.58	4
18.59	7
18.6	2
18.61	5
18.62	10
18.63	3
18.64	5
18.65	6
18.66	5
18.67	4
18.68	5
18.69	8
18.7	5
18.71	2
18.72	4
18.73	4
18.74	4
18.75	4
18.76	6
18.77	4
18.78	2
18.79	7
18.8	1
18.81	3
18.82	3
18.83	3
18.84	2
18.85	4
18.86	4
18.87	6
18.88	6
18.89	2
18.9	2
18.91	6
18.92	2
18.93	3
18.94	7
18.95	3
18.96	2
18.97	5
18.98	6
18.99	3
19	3
19.01	5
19.02	3
19.03	2
19.04	3
19.05	6
19.06	2
19.07	2
19.08	4
19.09	6
19.1	2
19.11	5
19.12	6
19.13	6
19.14	1
19.15	3
19.16	5
19.17	3
19.18	5
19.19	3
19.2	6
19.21	5
19.22	4
19.23	4
19.24	4
19.25	5
19.26	5
19.27	2
19.28	4
19.29	6
19.3	6
19.31	7
19.32	1
19.33	2
19.34	6
19.35	5
19.36	3
19.37	3
19.38	6
19.39	7
19.4	5
19.41	6
19.42	4
19.43	3
19.44	7
19.45	8
19.46	3
19.47	7
19.48	3
19.49	3
19.5	3
19.51	7
19.52	5
19.53	4
19.54	4
19.55	2
19.56	4
19.57	4
19.58	1
19.59	7
19.6	4
19.61	3
19.62	2
19.63	4
19.64	6
19.65	2
19.66	8
19.67	5
19.68	1
19.69	1
19.7	2
19.71	3
19.72	1
19.73	5
19.74	2
19.75	2
19.76	6
19.77	2
19.78	5
19.79	3
19.8	3
19.81	6
19.82	5
19.83	4
19.84	1
19.85	5
19.86	9
19.87	4
19.88	5
19.89	3
19.9	2
19.91	1
19.92	5
19.93	3
19.94	3
19.95	4
19.96	4
19.97	2
19.98	2
19.99	3
20	3
20.01	4
20.02	6
20.03	3
20.04	3
20.05	7
20.06	1
20.07	4
20.08	3
20.09	3
20.1	3
20.11	5
20.12	0
20.13	1
20.14	1
20.15	1
20.16	3
20.17	3
20.18	6
20.19	7
20.2	4
20.21	3
20.22	3
20.23	4
20.24	4
20.25	5
20.26	2
20.27	5
20.28	4
20.29	2
20.3	2
20.31	5
20.32	11
20.33	3
20.34	7
20.35	5
20.36	6
20.37	5
20.38	6
20.39	3
20.4	3
20.41	5
20.42	3
20.43	2
20.44	1
20.45	3
20.46	4
20.47	1
20.48	6
20.49	6
20.5	5
20.51	2
20.52	4
20.53	5
20.54	4
20.55	6
20.56	4
20.57	3
20.58	3
20.59	3
20.6	1
20.61	5
20.62	1
20.63	2
20.64	4
20.65	4
20.66	3
20.67	1
20.68	6
20.69	5
20.7	4
20.71	4
20.72	0
20.73	3
20.74	7
20.75	4
20.76	2
20.77	4
20.78	3
20.79	2
20.8	2
20.81	2
20.82	7
20.83	2
20.84	1
20.85	4
20.86	3
20.87	3
20.88	4
20.89	2
20.9	4
20.91	4
20.92	3
20.93	1
20.94	8
20.95	6
20.96	3
20.97	2
20.98	4
20.99	5
21	7
21.01	3
21.02	4
21.03	3
21.04	4
21.05	1
21.06	4
21.07	3
21.08	2
21.09	3
21.1	4
21.11	4
21.12	2
21.13	1
21.14	3
21.15	2
21.16	3
21.17	7
21.18	2
21.19	7
21.2	1
21.21	6
21.22	7
21.23	3
21.24	5
21.25	4
21.26	6
21.27	4
21.28	4
21.29	5
21.3	3
21.31	6
21.32	3
21.33	1
21.34	3
21.35	5
21.36	7
21.37	6
21.38	5
21.39	4
21.4	2
21.41	2
21.42	3
21.43	2
21.44	7
21.45	4
21.46	3
21.47	1
21.48	5
21.49	5
21.5	5
21.51	3
21.52	6
21.53	4
21.54	3
21.55	5
21.56	6
21.57	3
21.58	6
21.59	3
21.6	3
21.61	3
21.62	5
21.63	4
21.64	3
21.65	3
21.66	4
21.67	2
21.68	5
21.69	4
21.7	7
21.71	6
21.72	3
21.73	4
21.74	7
21.75	5
21.76	1
21.77	5
21.78	5
21.79	3
21.8	3
21.81	5
21.82	5
21.83	7
21.84	4
21.85	11
21.86	2
21.87	4
21.88	6
21.89	0
21.9	5
21.91	5
21.92	4
21.93	5
21.94	5
21.95	2
21.96	4
21.97	2
21.98	4
21.99	4
22	4
22.01	1
22.02	3
22.03	3
22.04	4
22.05	4
22.06	3
22.07	4
22.08	5
22.09	10
22.1	10
22.11	2
22.12	5
22.13	7
22.14	4
22.15	6
22.16	4
22.17	1
22.18	3
22.19	1
22.2	3
22.21	8
22.22	4
22.23	4
22.24	6
22.25	7
22.26	6
22.27	3
22.28	6
22.29	1
22.3	4
22.31	7
22.32	6
22.33	5
22.34	4
22.35	3
22.36	4
22.37	3
22.38	2
22.39	3
22.4	2
22.41	5
22.42	4
22.43	7
22.44	4
22.45	6
22.46	1
22.47	1
22.48	9
22.49	10
22.5	6
22.51	6
22.52	2
22.53	6
22.54	9
22.55	4
22.56	3
22.57	7
22.58	4
22.59	11
22.6	10
22.61	9
22.62	15
22.63	11
22.64	18
22.65	18
22.66	26
22.67	23
22.68	42
22.69	62
22.7	98
22.71	224
22.72	1134
22.73	5511
22.74	19824
22.75	40773
22.76	31612
22.77	13921
22.78	4780
22.79	609
22.8	155
22.81	60
22.82	39
22.83	35
22.84	12
22.85	12
22.86	15
22.87	15
22.88	14
22.89	11
22.9	12
22.91	11
22.92	8
22.93	8
22.94	8
22.95	8
22.96	6
22.97	7
22.98	7
22.99	7
23	5
23.01	6
23.02	7
23.03	7
23.04	5
23.05	5
23.06	4
23.07	6
23.08	4
23.09	4
23.1	3
23.11	4
23.12	5
23.13	3
23.14	3
23.15	1
23.16	3
23.17	4
23.18	3
23.19	4
23.2	3
23.21	6
23.22	5
23.23	4
23.24	3
23.25	2
23.26	7
23.27	5
23.28	7
23.29	9
23.3	4
23.31	2
23.32	5
23.33	5
23.34	6
23.35	2
23.36	4
23.37	2
23.38	3
23.39	3
23.4	3
23.41	2
23.42	6
23.43	7
23.44	2
23.45	7
23.46	5
23.47	4
23.48	6
23.49	1
23.5	9
23.51	8
23.52	8
23.53	4
23.54	2
23.55	6
23.56	4
23.57	2
23.58	3
23.59	4
23.6	7
23.61	6
23.62	2
23.63	3
23.64	3
23.65	4
23.66	6
23.67	4
23.68	5
23.69	6
23.7	5
23.71	4
23.72	7
23.73	3
23.74	8
23.75	7
23.76	4
23.77	5
23.78	5
23.79	4
23.8	5
23.81	6
23.82	3
23.83	5
23.84	3
23.85	4
23.86	1
23.87	5
23.88	4
23.89	3
23.9	5
23.91	7
23.92	7
23.93	3
23.94	3
23.95	3
23.96	2
23.97	2
23.98	3
23.99	2
24	3
24.01	4
24.02	5
24.03	7
24.04	3
24.05	6
24.06	3
24.07	2
24.08	4
24.09	6
24.1	3
24.11	4
24.12	2
24.13	2
24.14	2
24.15	4
24.16	5
24.17	7
24.18	5
24.19	7
24.2	6
24.21	5
24.22	3
24.23	5
24.24	6
24.25	5
24.26	3
24.27	3
24.28	7
24.29	0
24.3	3
24.31	1
24.32	4
24.33	6
24.34	3
24.35	8
24.36	10
24.37	4
24.38	2
24.39	1
24.4	4
24.41	2
24.42	1
24.43	2
24.44	3
24.45	3
24.46	6
24.47	4
24.48	1
24.49	3
24.5	4
24.51	2
24.52	4
24.53	8
24.54	10
24.55	6
24.56	2
24.57	5
24.58	2
24.59	7
24.6	2
24.61	5
24.62	3
24.63	2
24.64	2
24.65	4
24.66	4
24.67	3
24.68	4
24.69	2
24.7	4
24.71	2
24.72	1
24.73	1
24.74	5
24.75	4
24.76	4
24.77	0
24.78	4
24.79	3
24.8	4
24.81	3
24.82	2
24.83	4
24.84	5
24.85	5
24.86	1
24.87	9
24.88	2
24.89	2
24.9	4
24.91	2
24.92	6
24.93	3
24.94	3
24.95	5
24.96	2
24.97	6
24.98	1
24.99	1
25	2
25.01	3
25.02	7
25.03	7
25.04	1
25.05	6
25.06	4
25.07	2
25.08	3
25.09	1
25.1	6
25.11	3
25.12	4
25.13	6
25.14	4
25.15	2
25.16	1
25.17	4
25.18	1
25.19	2
25.2	2
25.21	4
25.22	3
25.23	3
25.24	3
25.25	2
25.26	2
25.27	3
25.28	4
25.29	1
25.3	3
25.31	4
25.32	3
25.33	3
25.34	4
25.35	1
25.36	4
25.37	4
25.38	2
25.39	2
25.4	4
25.41	4
25.42	3
25.43	4
25.44	2
25.45	1
25.46	5
25.47	6
25.48	4
25.49	0
25.5	4
25.51	2
25.52	6
25.53	3
25.54	2
25.55	4
25.56	1
25.57	2
25.58	3
25.59	2
25.6	0
25.61	9
25.62	4
25.63	3
25.64	5
25.65	1
25.66	3
25.67	1
25.68	4
25.69	4
25.7	1
25.71	6
25.72	5
25.73	3
25.74	1
25.75	2
25.76	3
25.77	1
25.78	3
25.79	4
25.8	6
25.81	2
25.82	5
25.83	4
25.84	1
25.85	1
25.86	0
25.87	2
25.88	6
25.89	5
25.9	2
25.91	6
25.92	5
25.93	2
25.94	4
25.95	3
25.96	7
25.97	0
25.98	0
25.99	2
26	3
26.01	2
26.02	3
26.03	1
26.04	7
26.05	4
26.06	5
26.07	2
26.08	0
26.09	2
26.1	3
26.11	3
26.12	5
26.13	3
26.14	3
26.15	4
26.16	3
26.17	2
26.18	3
26.19	5
26.2	0
26.21	2
26.22	2
26.23	5
26.24	0
26.25	3
26.26	3
26.27	2
26.28	1
26.29	3
26.3	4
26.31	0
26.32	4
26.33	1
26.34	1
26.35	2
26.36	1
26.37	1
26.38	1
26.39	1
26.4	3
26.41	1
26.42	4
26.43	3
26.44	1
26.45	6
26.46	3
26.47	1
26.48	3
26.49	2
26.5	0
26.51	2
26.52	2
26.53	3
26.54	2
26.55	1
26.56	3
26.57	3
26.58	3
26.59	2
26.6	2
26.61	2
26.62	0
26.63	1
26.64	5
26.65	8
26.66	5
26.67	2
26.68	2
26.69	3
26.7	2
26.71	4
26.72	2
26.73	7
26.74	1
26.75	2
26.76	5
26.77	2
26.78	1
26.79	1
26.8	3
26.81	2
26.82	3
26.83	0
26.84	3
26.85	4
26.86	1
26.87	3
26.88	1
26.89	1
26.9	2
26.91	3
26.92	0
26.93	1
26.94	5
26.95	3
26.96	2
26.97	2
26.98	3
26.99	2
27	1
27.01	3
27.02	3
27.03	5
27.04	1
27.05	1
27.06	1
27.07	4
27.08	2
27.09	1
27.1	1
27.11	0
27.12	4
27.13	2
27.14	1
27.15	2
27.16	0
27.17	2
27.18	1
27.19	1
27.2	1
27.21	0
27.22	6
27.23	3
27.24	2
27.25	2
27.26	7
27.27	2
27.28	3
27.29	0
27.3	2
27.31	1
27.32	3
27.33	3
27.34	7
27.35	0
27.36	7
27.37	0
27.38	1
27.39	4
27.4	2
27.41	1
27.42	3
27.43	5
27.44	3
27.45	5
27.46	3
27.47	1
27.48	3
27.49	2
27.5	2
27.51	1
27.52	2
27.53	2
27.54	6
27.55	5
27.56	3
27.57	3
27.58	2
27.59	2
27.6	4
27.61	2
27.62	2
27.63	0
27.64	2
27.65	2
27.66	4
27.67	2
27.68	2
27.69	2
27.7	5
27.71	1
27.72	3
27.73	1
27.74	3
27.75	2
27.76	4
27.77	1
27.78	1
27.79	1
27.8	0
27.81	5
27.82	0
27.83	2
27.84	2
27.85	5
27.86	1
27.87	2
27.88	1
27.89	2
27.9	4
27.91	2
27.92	1
27.93	5
27.94	0
27.95	4
27.96	1
27.97	2
27.98	1
27.99	1
28	0
28.01	1
28.02	0
28.03	0
28.04	4
28.05	2
28.06	3
28.07	1
28.08	2
28.09	3
28.1	3
28.11	5
28.12	1
28.13	0
28.14	3
28.15	1
28.16	5
28.17	2
28.18	5
28.19	1
28.2	3
28.21	1
28.22	3
28.23	1
28.24	2
28.25	2
28.26	5
28.27	5
28.28	2
28.29	2
28.3	0
28.31	4
28.32	2
28.33	4
28.34	3
28.35	4
28.36	5
28.37	1
28.38	8
28.39	2
28.4	0
28.41	3
28.42	3
28.43	2
28.44	3
28.45	2
28.46	1
28.47	1
28.48	0
28.49	1
28.5	1
28.51	6
28.52	2
28.53	5
28.54	2
28.55	2
28.56	6
28.57	1
28.58	0
28.59	2
28.6	2
28.61	3
28.62	2
28.63	0
28.64	2
28.65	4
28.66	1
28.67	3
28.68	4
28.69	3
28.7	1
28.71	2
28.72	2
28.73	1
28.74	0
28.75	1
28.76	2
28.77	3
28.78	2
28.79	3
28.8	2
28.81	2
28.82	2
28.83	1
28.84	0
28.85	5
28.86	1
28.87	2
28.88	0
28.89	1
28.9	1
28.91	2
28.92	3
28.93	0
28.94	0
28.95	0
28.96	2
28.97	2
28.98	0
28.99	4
29	4
29.01	2
29.02	1
29.03	1
29.04	4
29.05	5
29.06	0
29.07	2
29.08	2
29.09	1
29.1	4
29.11	0
29.12	2
29.13	1
29.14	4
29.15	3
29.16	0
29.17	2
29.18	0
29.19	0
29.2	4
29.21	4
29.22	1
29.23	1
29.24	0
29.25	2
29.26	1
29.27	2
29.28	2
29.29	7
29.3	3
29.31	2
29.32	2
29.33	3
29.34	1
29.35	2
29.36	1
29.37	1
29.38	2
29.39	1
29.4	0
29.41	3
29.42	4
29.43	3
29.44	2
29.45	2
29.46	0
29.47	2
29.48	2
29.49	1
29.5	1
29.51	0
29.52	0
29.53	0
29.54	1
29.55	0
29.56	2
29.57	3
29.58	1
29.59	1
29.6	3
29.61	3
29.62	3
29.63	1
29.64	1
29.65	2
29.66	2
29.67	0
29.68	0
29.69	1
29.7	2
29.71	1
29.72	4
29.73	1
29.74	1
29.75	2
29.76	3
29.77	1
29.78	0
29.79	2
29.8	2
29.81	0
29.82	2
29.83	4
29.84	4
29.85	1
29.86	1
29.87	3
29.88	0
29.89	7
29.9	1
29.91	1
29.92	4
29.93	3
29.94	1
29.95	2
29.96	3
29.97	1
29.98	6
29.99	2
30	0
30.01	2
30.02	3
30.03	2
30.04	1
30.05	3
30.06	2
30.07	2
30.08	2
30.09	1
30.1	3
30.11	1
30.12	1
30.13	4
30.14	1
30.15	4
30.16	2
30.17	5
30.18	1
30.19	1
30.2	1
30.21	0
30.22	3
30.23	4
30.24	1
30.25	4
30.26	2
30.27	1
30.28	0
30.29	1
30.3	5
30.31	1
30.32	2
30.33	2
30.34	0
30.35	1
30.36	4
30.37	4
30.38	1
30.39	0
30.4	4
30.41	2
30.42	4
30.43	3
30.44	0
30.45	3
30.46	2
30.47	0
30.48	1
30.49	1
30.5	3
30.51	1
30.52	2
30.53	1
30.54	3
30.55	2
30.56	1
30.57	1
30.58	1
30.59	3
30.6	1
30.61	2
30.62	4
30.63	3
30.64	4
30.65	3
30.66	1
30.67	3
30.68	1
30.69	0
30.7	3
30.71	5
30.72	2
30.73	4
30.74	4
30.75	3
30.76	5
30.77	2
30.78	5
30.79	4
30.8	4
30.81	4
30.82	3
30.83	2
30.84	4
30.85	3
30.86	1
30.87	0
30.88	5
30.89	2
30.9	2
30.91	3
30.92	4
30.93	4
30.94	3
30.95	0
30.96	2
30.97	5
30.98	3
30.99	1
31	1
31.01	1
31.02	0
31.03	2
31.04	5
31.05	0
31.06	3
31.07	5
31.08	0
31.09	3
31.1	2
31.11	2
31.12	1
31.13	4
31.14	5
31.15	1
31.16	4
31.17	0
31.18	5
31.19	7
31.2	0
31.21	2
31.22	1
31.23	1
31.24	2
31.25	4
31.26	4
31.27	1
31.28	1
31.29	4
31.3	5
31.31	2
31.32	3
31.33	0
31.34	4
31.35	0
31.36	1
31.37	1
31.38	6
31.39	3
31.4	2
31.41	1
31.42	7
31.43	4
31.44	1
31.45	3
31.46	3
31.47	4
31.48	3
31.49	1
31.5	2
31.51	7
31.52	2
31.53	0
31.54	2
31.55	3
31.56	2
31.57	1
31.58	1
31.59	3
31.6	1
31.61	1
31.62	4
31.63	2
31.64	3
31.65	5
31.66	2
31.67	0
31.68	1
31.69	2
31.7	4
31.71	2
31.72	4
31.73	2
31.74	1
31.75	0
31.76	1
31.77	1
31.78	5
31.79	3
31.8	2
31.81	6
31.82	4
31.83	6
31.84	2
31.85	4
31.86	3
31.87	2
31.88	1
31.89	2
31.9	4
31.91	2
31.92	2
31.93	2
31.94	1
31.95	3
31.96	3
31.97	0
31.98	3
31.99	0
32	3
32.01	1
32.02	1
32.03	1
32.04	0
32.05	2
32.06	3
32.07	2
32.08	2
32.09	1
32.1	3
32.11	4
32.12	1
32.13	3
32.14	5
32.15	5
32.16	5
32.17	3
32.18	2
32.19	2
32.2	3
32.21	0
32.22	1
32.23	2
32.24	2
32.25	1
32.26	0
32.27	7
32.28	2
32.29	0
32.3	1
32.31	2
32.32	1
32.33	4
32.34	1
32.35	0
32.36	0
32.37	2
32.38	5
32.39	1
32.4	1
32.41	2
32.42	2
32.43	1
32.44	0
32.45	3
32.46	3
32.47	2
32.48	3
32.49	3
32.5	2
32.51	2
32.52	4
32.53	2
32.54	1
32.55	5
32.56	4
32.57	3
32.58	3
32.59	1
32.6	2
32.61	2
32.62	2
32.63	2
32.64	4
32.65	0
32.66	3
32.67	1
32.68	0
32.69	5
32.7	2
32.71	3
32.72	3
32.73	1
32.74	1
32.75	2
32.76	1
32.77	1
32.78	1
32.79	4
32.8	3
32.81	1
32.82	1
32.83	2
32.84	0
32.85	2
32.86	4
32.87	3
32.88	4
32.89	4
32.9	4
32.91	3
32.92	1
32.93	0
32.94	1
32.95	3
32.96	1
32.97	5
32.98	1
32.99	2
33	2
33.01	3
33.02	2
33.03	3
33.04	1
33.05	1
33.06	2
33.07	4
33.08	0
33.09	3
33.1	3
33.11	3
33.12	1
33.13	3
33.14	2
33.15	0
33.16	4
33.17	1
33.18	2
33.19	1
33.2	2
33.21	1
33.22	3
33.23	3
33.24	3
33.25	1
33.26	2
33.27	1
33.28	5
33.29	3
33.3	3
33.31	0
33.32	3
33.33	3
33.34	4
33.35	7
33.36	4
33.37	5
33.38	2
33.39	1
33.4	4
33.41	1
33.42	3
33.43	2
33.44	5
33.45	2
33.46	2
33.47	1
33.48	3
33.49	1
33.5	4
33.51	2
33.52	2
33.53	2
33.54	7
33.55	2
33.56	6
33.57	1
33.58	4
33.59	0
33.6	3
33.61	2
33.62	1
33.63	2
33.64	2
33.65	4
33.66	3
33.67	3
33.68	2
33.69	3
33.7	3
33.71	5
33.72	3
33.73	3
33.74	2
33.75	1
33.76	1
33.77	3
33.78	5
33.79	4
33.8	1
33.81	5
33.82	3
33.83	3
33.84	3
33.85	0
33.86	2
33.87	2
33.88	1
33.89	2
33.9	2
33.91	3
33.92	1
33.93	0
33.94	3
33.95	2
33.96	2
33.97	1
33.98	5
33.99	1
34	2
34.01	3
34.02	2
34.03	0
34.04	1
34.05	2
34.06	1
34.07	1
34.08	1
34.09	1
34.1	5
34.11	2
34.12	2
34.13	1
34.14	2
34.15	2
34.16	1
34.17	3
34.18	1
34.19	0
34.2	2
34.21	3
34.22	3
34.23	1
34.24	1
34.25	3
34.26	0
34.27	2
34.28	4
34.29	1
34.3	2
34.31	2
34.32	3
34.33	3
34.34	2
34.35	0
34.36	1
34.37	1
34.38	1
34.39	3
34.4	2
34.41	1
34.42	3
34.43	2
34.44	1
34.45	0
34.46	2
34.47	0
34.48	2
34.49	3
34.5	4
34.51	0
34.52	3
34.53	3
34.54	1
34.55	1
34.56	3
34.57	0
34.58	1
34.59	3
34.6	2
34.61	2
34.62	0
34.63	1
34.64	4
34.65	2
34.66	3
34.67	0
34.68	3
34.69	0
34.7	1
34.71	0
34.72	1
34.73	2
34.74	1
34.75	4
34.76	2
34.77	3
34.78	3
34.79	1
34.8	5
34.81	2
34.82	1
34.83	2
34.84	3
34.85	0
34.86	2
34.87	3
34.88	1
34.89	1
34.9	0
34.91	3
34.92	2
34.93	1
34.94	1
34.95	1
34.96	1
34.97	2
34.98	3
34.99	1
35	2
35.01	2
35.02	0
35.03	0
35.04	2
35.05	0
35.06	2
35.07	1
35.08	2
35.09	1
35.1	0
35.11	2
35.12	2
35.13	3
35.14	1
35.15	2
35.16	2
35.17	4
35.18	8
35.19	1
35.2	2
35.21	2
35.22	0
35.23	2
35.24	1
35.25	4
35.26	4
35.27	3
35.28	3
35.29	0
35.3	2
35.31	2
35.32	3
35.33	1
35.34	3
35.35	2
35.36	2
35.37	3
35.38	0
35.39	0
35.4	0
35.41	4
35.42	2
35.43	3
35.44	4
35.45	3
35.46	2
35.47	1
35.48	2
35.49	5
35.5	1
35.51	2
35.52	2
35.53	6
35.54	2
35.55	2
35.56	5
35.57	2
35.58	0
35.59	5
35.6	3
35.61	5
35.62	2
35.63	3
35.64	2
35.65	2
35.66	3
35.67	2
35.68	3
35.69	1
35.7	2
35.71	3
35.72	1
35.73	0
35.74	2
35.75	3
35.76	1
35.77	4
35.78	1
35.79	1
35.8	2
35.81	3
35.82	3
35.83	1
35.84	2
35.85	1
35.86	4
35.87	0
35.88	2
35.89	6
35.9	1
35.91	1
35.92	3
35.93	1
35.94	4
35.95	4
35.96	1
35.97	2
35.98	2
35.99	2
36	3
36.01	1
36.02	6
36.03	2
36.04	1
36.05	2
36.06	1
36.07	3
36.08	3
36.09	4
36.1	2
36.11	6
36.12	3
36.13	1
36.14	6
36.15	3
36.16	5
36.17	1
36.18	4
36.19	4
36.2	0
36.21	2
36.22	2
36.23	3
36.24	1
36.25	2
36.26	0
36.27	1
36.28	1
36.29	4
36.3	1
36.31	3
36.32	3
36.33	1
36.34	1
36.35	4
36.36	3
36.37	2
36.38	4
36.39	2
36.4	2
36.41	1
36.42	2
36.43	4
36.44	1
36.45	2
36.46	3
36.47	5
36.48	1
36.49	0
36.5	2
36.51	2
36.52	2
36.53	2
36.54	1
36.55	3
36.56	0
36.57	2
36.58	1
36.59	1
36.6	5
36.61	2
36.62	1
36.63	2
36.64	1
36.65	4
36.66	1
36.67	4
36.68	4
36.69	2
36.7	6
36.71	2
36.72	3
36.73	1
36.74	1
36.75	3
36.76	3
36.77	3
36.78	3
36.79	5
36.8	2
36.81	4
36.82	1
36.83	2
36.84	2
36.85	3
36.86	4
36.87	2
36.88	3
36.89	5
36.9	4
36.91	1
36.92	1
36.93	1
36.94	3
36.95	3
36.96	2
36.97	5
36.98	1
36.99	1
37	1
37.01	2
37.02	2
37.03	1
37.04	4
37.05	2
37.06	3
37.07	1
37.08	2
37.09	1
37.1	2
37.11	2
37.12	4
37.13	2
37.14	2
37.15	0
37.16	5
37.17	2
37.18	4
37.19	1
37.2	2
37.21	1
37.22	3
37.23	5
37.24	3
37.25	1
37.26	1
37.27	1
37.28	1
37.29	1
37.3	1
37.31	4
37.32	3
37.33	5
37.34	4
37.35	5
37.36	4
37.37	4
37.38	3
37.39	2
37.4	2
37.41	3
37.42	2
37.43	3
37.44	2
37.45	4
37.46	2
37.47	2
37.48	4
37.49	5
37.5	1
37.51	3
37.52	1
37.53	2
37.54	3
37.55	4
37.56	4
37.57	2
37.58	1
37.59	6
37.6	1
37.61	3
37.62	3
37.63	1
37.64	1
37.65	4
37.66	3
37.67	4
37.68	1
37.69	3
37.7	3
37.71	4
37.72	4
37.73	1
37.74	1
37.75	5
37.76	3
37.77	0
37.78	3
37.79	2
37.8	0
37.81	3
37.82	4
37.83	6
37.84	5
37.85	3
37.86	1
37.87	3
37.88	3
37.89	3
37.9	2
37.91	5
37.92	7
37.93	4
37.94	1
37.95	4
37.96	3
37.97	3
37.98	4
37.99	8
38	3
38.01	2
38.02	1
38.03	4
38.04	8
38.05	5
38.06	4
38.07	7
38.08	7
38.09	4
38.1	7
38.11	5
38.12	3
38.13	4
38.14	5
38.15	8
38.16	4
38.17	6
38.18	5
38.19	3
38.2	6
38.21	1
38.22	5
38.23	5
38.24	4
38.25	3
38.26	5
38.27	3
38.28	3
38.29	6
38.3	4
38.31	1
38.32	8
38.33	7
38.34	7
38.35	3
38.36	5
38.37	4
38.38	6
38.39	6
38.4	4
38.41	5
38.42	3
38.43	10
38.44	2
38.45	0
38.46	3
38.47	0
38.48	6
38.49	4
38.5	3
38.51	2
38.52	4
38.53	5
38.54	5
38.55	4
38.56	4
38.57	3
38.58	3
38.59	7
38.6	3
38.61	3
38.62	5
38.63	5
38.64	3
38.65	4
38.66	3
38.67	4
38.68	4
38.69	6
38.7	2
38.71	0
38.72	2
38.73	2
38.74	3
38.75	7
38.76	1
38.77	3
38.78	3
38.79	1
38.8	3
38.81	3
38.82	6
38.83	3
38.84	6
38.85	2
38.86	3
38.87	3
38.88	3
38.89	3
38.9	3
38.91	3
38.92	4
38.93	3
38.94	7
38.95	0
38.96	5
38.97	3
38.98	2
38.99	6
39	2
39.01	3
39.02	3
39.03	4
39.04	0
39.05	2
39.06	3
39.07	2
39.08	2
39.09	0
39.1	2
39.11	3
39.12	1
39.13	6
39.14	3
39.15	4
39.16	0
39.17	2
39.18	4
39.19	1
39.2	3
39.21	3
39.22	0
39.23	3
39.24	1
39.25	2
39.26	1
39.27	1
39.28	1
39.29	3
39.3	3
39.31	3
39.32	2
39.33	4
39.34	5
39.35	0
39.36	1
39.37	3
39.38	1
39.39	1
39.4	2
39.41	2
39.42	2
39.43	4
39.44	0
39.45	1
39.46	2
39.47	1
39.48	2
39.49	3
39.5	2
39.51	4
39.52	3
39.53	3
39.54	2
39.55	3
39.56	4
39.57	2
39.58	2
39.59	2
39.6	0
39.61	6
39.62	3
39.63	0
39.64	2
39.65	2
39.66	3
39.67	3
39.68	1
39.69	4
39.7	1
39.71	2
39.72	3
39.73	3
39.74	0
39.75	0
39.76	1
39.77	0
39.78	1
39.79	1
39.8	0
39.81	1
39.82	1
39.83	1
39.84	3
39.85	3
39.86	2
39.87	4
39.88	1
39.89	1
39.9	0
39.91	2
39.92	2
39.93	1
39.94	1
39.95	1
39.96	2
39.97	1
39.98	0
39.99	3
40	4
40.01	1
40.02	4
40.03	1
40.04	1
40.05	1
40.06	4
40.07	0
40.08	4
40.09	2
40.1	3
40.11	5
40.12	2
40.13	1
40.14	4
40.15	2
40.16	2
40.17	0
40.18	4
40.19	3
40.2	1
40.21	1
40.22	3
40.23	3
40.24	0
40.25	3
40.26	2
40.27	3
40.28	0
40.29	1
40.3	1
40.31	4
40.32	0
40.33	0
40.34	0
40.35	2
40.36	0
40.37	4
40.38	2
40.39	3
40.4	0
40.41	1
40.42	2
40.43	0
40.44	3
40.45	3
40.46	0
40.47	3
40.48	1
40.49	0
40.5	3
40.51	3
40.52	1
40.53	1
40.54	2
40.55	1
40.56	1
40.57	2
40.58	1
40.59	1
40.6	0
40.61	3
40.62	2
40.63	1
40.64	2
40.65	2
40.66	1
40.67	1
40.68	2
40.69	3
40.7	3
40.71	2
40.72	1
40.73	1
40.74	1
40.75	2
40.76	2
40.77	1
40.78	0
40.79	2
40.8	3
40.81	3
40.82	1
40.83	0
40.84	0
40.85	2
40.86	2
40.87	1
40.88	1
40.89	2
40.9	1
40.91	0
40.92	0
40.93	1
40.94	0
40.95	1
40.96	4
40.97	2
40.98	2
40.99	0
41	1
41.01	1
41.02	1
41.03	2
41.04	2
41.05	2
41.06	2
41.07	1
41.08	2
41.09	0
41.1	0
41.11	2
41.12	1
41.13	1
41.14	3
41.15	1
41.16	0
41.17	0
41.18	1
41.19	3
41.2	1
41.21	2
41.22	1
41.23	3
41.24	1
41.25	2
41.26	3
41.27	4
41.28	1
41.29	0
41.3	2
41.31	0
41.32	2
41.33	2
41.34	1
41.35	0
41.36	0
41.37	1
41.38	3
41.39	4
41.4	1
41.41	4
41.42	1
41.43	2
41.44	4
41.45	0
41.46	2
41.47	1
41.48	2
41.49	4
41.5	4
41.51	2
41.52	5
41.53	1
41.54	5
41.55	2
41.56	0
41.57	2
41.58	0
41.59	1
41.6	2
41.61	2
41.62	1
41.63	2
41.64	0
41.65	0
41.66	1
41.67	0
41.68	0
41.69	0
41.7	1
41.71	2
41.72	2
41.73	2
41.74	2
41.75	1
41.76	3
41.77	0
41.78	2
41.79	4
41.8	3
41.81	2
41.82	1
41.83	1
41.84	0
41.85	0
41.86	2
41.87	1
41.88	1
41.89	2
41.9	1
41.91	3
41.92	0
41.93	1
41.94	4
41.95	1
41.96	3
41.97	4
41.98	1
41.99	2
42	1
42.01	2
42.02	1
42.03	0
42.04	0
42.05	1
42.06	1
42.07	2
42.08	2
42.09	1
42.1	1
42.11	1
42.12	1
42.13	4
42.14	1
42.15	1
42.16	1
42.17	1
42.18	0
42.19	0
42.2	3
42.21	0
42.22	3
42.23	4
42.24	1
42.25	0
42.26	2
42.27	1
42.28	1
42.29	1
42.3	3
42.31	1
42.32	1
42.33	1
42.34	3
42.35	1
42.36	1
42.37	3
42.38	4
42.39	0
42.4	0
42.41	2
42.42	2
42.43	3
42.44	1
42.45	5
42.46	1
42.47	6
42.48	2
42.49	1
42.5	2
42.51	0
42.52	2
42.53	2
42.54	2
42.55	1
42.56	2
42.57	4
42.58	1
42.59	1
42.6	2
42.61	2
42.62	2
42.63	0
42.64	2
42.65	0
42.66	4
42.67	2
42.68	3
42.69	2
42.7	1
42.71	6
42.72	1
42.73	0
42.74	1
42.75	1
42.76	2
42.77	0
42.78	2
42.79	1
42.8	3
42.81	2
42.82	1
42.83	2
42.84	1
42.85	1
42.86	3
42.87	1
42.88	1
42.89	2
42.9	1
42.91	3
42.92	1
42.93	0
42.94	2
42.95	1
42.96	4
42.97	3
42.98	1
42.99	4
43	2
43.01	1
43.02	1
43.03	2
43.04	2
43.05	0
43.06	3
43.07	2
43.08	3
43.09	1
43.1	1
43.11	3
43.12	0
43.13	0
43.14	1
43.15	2
43.16	1
43.17	1
43.18	3
43.19	2
43.2	1
43.21	1
43.22	3
43.23	2
43.24	2
43.25	5
43.26	1
43.27	2
43.28	1
43.29	0
43.3	0
43.31	3
43.32	0
43.33	1
43.34	1
43.35	2
43.36	2
43.37	2
43.38	2
43.39	1
43.4	4
43.41	3
43.42	1
43.43	6
43.44	0
43.45	3
43.46	2
43.47	1
43.48	1
43.49	6
43.5	2
43.51	2
43.52	2
43.53	1
43.54	0
43.55	1
43.56	1
43.57	6
43.58	3
43.59	1
43.6	0
43.61	4
43.62	1
43.63	1
43.64	2
43.65	1
43.66	1
43.67	0
43.68	0
43.69	3
43.7	3
43.71	1
43.72	2
43.73	2
43.74	4
43.75	1
43.76	4
43.77	2
43.78	1
43.79	0
43.8	3
43.81	0
43.82	2
43.83	1
43.84	3
43.85	2
43.86	2
43.87	3
43.88	2
43.89	1
43.9	0
43.91	2
43.92	1
43.93	1
43.94	4
43.95	1
43.96	2
43.97	2
43.98	3
43.99	1
44	2
44.01	1
44.02	3
44.03	3
44.04	2
44.05	2
44.06	0
44.07	0
44.08	0
44.09	2
44.1	6
44.11	2
44.12	8
44.13	6
44.14	0
44.15	1
44.16	2
44.17	2
44.18	2
44.19	1
44.2	4
44.21	1
44.22	3
44.23	1
44.24	1
44.25	1
44.26	3
44.27	4
44.28	3
44.29	4
44.3	2
44.31	1
44.32	2
44.33	3
44.34	1
44.35	4
44.36	1
44.37	5
44.38	1
44.39	0
44.4	3
44.41	3
44.42	2
44.43	3
44.44	5
44.45	2
44.46	2
44.47	1
44.48	3
44.49	3
44.5	3
44.51	0
44.52	2
44.53	4
44.54	3
44.55	1
44.56	3
44.57	6
44.58	3
44.59	4
44.6	2
44.61	1
44.62	3
44.63	1
44.64	0
44.65	1
44.66	0
44.67	6
44.68	4
44.69	0
44.7	5
44.71	3
44.72	2
44.73	6
44.74	4
44.75	3
44.76	4
44.77	5
44.78	3
44.79	2
44.8	2
44.81	3
44.82	0
44.83	7
44.84	3
44.85	2
44.86	4
44.87	4
44.88	1
44.89	4
44.9	6
44.91	5
44.92	2
44.93	3
44.94	2
44.95	2
44.96	2
44.97	3
44.98	3
44.99	3
45	2
45.01	3
45.02	2
45.03	5
45.04	4
45.05	2
45.06	6
45.07	2
45.08	3
45.09	8
45.1	1
45.11	3
45.12	4
45.13	5
45.14	3
45.15	1
45.16	3
45.17	5
45.18	1
45.19	10
45.2	3
45.21	2
45.22	6
45.23	2
45.24	3
45.25	5
45.26	4
45.27	4
45.28	3
45.29	2
45.3	5
45.31	6
45.32	3
45.33	2
45.34	0
45.35	4
45.36	1
45.37	7
45.38	5
45.39	4
45.4	4
45.41	2
45.42	4
45.43	5
45.44	4
45.45	1
45.46	6
45.47	5
45.48	2
45.49	5
45.5	4
45.51	9
45.52	5
45.53	3
45.54	7
45.55	4
45.56	1
45.57	5
45.58	10
45.59	8
45.6	6
45.61	4
45.62	4
45.63	7
45.64	5
45.65	7
45.66	12
45.67	2
45.68	7
45.69	2
45.7	5
45.71	11
45.72	8
45.73	7
45.74	7
45.75	5
45.76	9
45.77	7
45.78	9
45.79	3
45.8	8
45.81	5
45.82	8
45.83	7
45.84	7
45.85	9
45.86	11
45.87	9
45.88	11
45.89	6
45.9	5
45.91	11
45.92	3
45.93	10
45.94	15
45.95	8
45.96	5
45.97	9
45.98	8
45.99	8
46	10
46.01	6
46.02	12
46.03	11
46.04	22
46.05	13
46.06	16
46.07	12
46.08	17
46.09	20
46.1	11
46.11	19
46.12	16
46.13	23
46.14	19
46.15	18
46.16	29
46.17	24
46.18	23
46.19	19
46.2	31
46.21	34
46.22	32
46.23	42
46.24	34
46.25	48
46.26	56
46.27	55
46.28	87
46.29	83
46.3	97
46.31	89
46.32	121
46.33	150
46.34	193
46.35	218
46.36	295
46.37	341
46.38	507
46.39	753
46.4	1211
46.41	2391
46.42	6142
46.43	19935
46.44	62920
46.45	176748
46.46	403340
46.47	372202
46.48	188395
46.49	71699
46.5	23670
46.51	4929
46.52	1617
46.53	842
46.54	534
46.55	352
46.56	230
46.57	189
46.58	170
46.59	135
46.6	99
46.61	94
46.62	85
46.63	42
46.64	46
46.65	41
46.66	46
46.67	29
46.68	31
46.69	31
46.7	21
46.71	29
46.72	18
46.73	20
46.74	17
46.75	22
46.76	17
46.77	17
46.78	17
46.79	20
46.8	13
46.81	13
46.82	11
46.83	12
46.84	14
46.85	8
46.86	8
46.87	21
46.88	9
46.89	7
46.9	9
46.91	10
46.92	8
46.93	3
46.94	7
46.95	6
46.96	5
46.97	6
46.98	6
46.99	9
47	3
47.01	6
47.02	7
47.03	1
47.04	6
47.05	6
47.06	8
47.07	3
47.08	0
47.09	6
47.1	3
47.11	3
47.12	3
47.13	4
47.14	4
47.15	6
47.16	5
47.17	1
47.18	3
47.19	2
47.2	3
47.21	7
47.22	7
47.23	2
47.24	3
47.25	4
47.26	2
47.27	2
47.28	5
47.29	4
47.3	3
47.31	2
47.32	4
47.33	1
47.34	5
47.35	4
47.36	2
47.37	1
47.38	4
47.39	2
47.4	3
47.41	0
47.42	1
47.43	1
47.44	1
47.45	2
47.46	6
47.47	1
47.48	3
47.49	1
47.5	0
47.51	0
47.52	2
47.53	4
47.54	3
47.55	2
47.56	1
47.57	1
47.58	1
47.59	2
47.6	2
47.61	2
47.62	3
47.63	1
47.64	3
47.65	4
47.66	0
47.67	2
47.68	0
47.69	4
47.7	3
47.71	2
47.72	4
47.73	3
47.74	3
47.75	1
47.76	2
47.77	1
47.78	0
47.79	2
47.8	2
47.81	0
47.82	1
47.83	1
47.84	3
47.85	0
47.86	0
47.87	2
47.88	3
47.89	1
47.9	1
47.91	0
47.92	1
47.93	0
47.94	2
47.95	4
47.96	1
47.97	1
47.98	1
47.99	2
48	1
48.01	1
48.02	2
48.03	3
48.04	1
48.05	0
48.06	2
48.07	2
48.08	1
48.09	2
48.1	2
48.11	4
48.12	0
48.13	2
48.14	0
48.15	2
48.16	1
48.17	1
48.18	2
48.19	4
48.2	3
48.21	6
48.22	0
48.23	0
48.24	2
48.25	1
48.26	0
48.27	1
48.28	5
48.29	4
48.3	1
48.31	1
48.32	1
48.33	0
48.34	2
48.35	4
48.36	5
48.37	2
48.38	3
48.39	0
48.4	1
48.41	1
48.42	2
48.43	3
48.44	7
48.45	7
48.46	1
48.47	1
48.48	0
48.49	0
48.5	1
48.51	2
48.52	2
48.53	0
48.54	2
48.55	4
48.56	4
48.57	2
48.58	3
48.59	0
48.6	1
48.61	0
48.62	0
48.63	2
48.64	2
48.65	0
48.66	4
48.67	1
48.68	0
48.69	2
48.7	2
48.71	1
48.72	1
48.73	2
48.74	4
48.75	1
48.76	3
48.77	1
48.78	0
48.79	0
48.8	2
48.81	1
48.82	2
48.83	1
48.84	4
48.85	1
48.86	3
48.87	1
48.88	2
48.89	0
48.9	1
48.91	2
48.92	1
48.93	1
48.94	2
48.95	3
48.96	0
48.97	2
48.98	2
48.99	0
49	1
49.01	2
49.02	2
49.03	1
49.04	2
49.05	1
49.06	5
49.07	6
49.08	1
49.09	0
49.1	1
49.11	1
49.12	2
49.13	1
49.14	0
49.15	4
49.16	4
49.17	2
49.18	0
49.19	1
49.2	3
49.21	1
49.22	1
49.23	2
49.24	0
49.25	4
49.26	3
49.27	2
49.28	1
49.29	2
49.3	3
49.31	2
49.32	3
49.33	4
49.34	3
49.35	3
49.36	1
49.37	3
49.38	0
49.39	0
49.4	1
49.41	4
49.42	1
49.43	0
49.44	5
49.45	3
49.46	2
49.47	1
49.48	0
49.49	2
49.5	3
49.51	3
49.52	3
49.53	2
49.54	3
49.55	3
49.56	3
49.57	1
49.58	0
49.59	2
49.6	1
49.61	0
49.62	0
49.63	3
49.64	2
49.65	1
49.66	1
49.67	0
49.68	2
49.69	1
49.7	2
49.71	1
49.72	2
49.73	2
49.74	0
49.75	2
49.76	3
49.77	2
49.78	1
49.79	3
49.8	1
49.81	0
49.82	1
49.83	1
49.84	2
49.85	0
49.86	2
49.87	0
49.88	2
49.89	0
49.9	4
49.91	0
49.92	1
49.93	1
49.94	4
49.95	0
49.96	1
49.97	1
49.98	0
49.99	2
50	4
50.01	3
50.02	3
50.03	0
50.04	0
50.05	3
50.06	0
50.07	1
50.08	1
50.09	1
50.1	4
50.11	1
50.12	4
50.13	2
50.14	2
50.15	1
50.16	2
50.17	1
50.18	1
50.19	3
50.2	5
50.21	0
50.22	2
50.23	2
50.24	2
50.25	0
50.26	0
50.27	3
50.28	3
50.29	2
50.3	3
50.31	3
50.32	1
50.33	2
50.34	1
50.35	0
50.36	4
50.37	1
50.38	3
50.39	1
50.4	2
50.41	1
50.42	0
50.43	2
50.44	1
50.45	1
50.46	0
50.47	0
50.48	1
50.49	1
50.5	2
50.51	3
50.52	0
50.53	4
50.54	0
50.55	0
50.56	0
50.57	4
50.58	2
50.59	0
50.6	3
50.61	1
50.62	0
50.63	0
50.64	0
50.65	2
50.66	1
50.67	1
50.68	0
50.69	2
50.7	1
50.71	2
50.72	2
50.73	3
50.74	1
50.75	2
50.76	0
50.77	2
50.78	3
50.79	1
50.8	4
50.81	0
50.82	2
50.83	2
50.84	2
50.85	0
50.86	3
50.87	1
50.88	2
50.89	1
50.9	0
50.91	0
50.92	1
50.93	3
50.94	2
50.95	1
50.96	1
50.97	3
50.98	3
50.99	0
51	2
51.01	1
51.02	3
51.03	0
51.04	2
51.05	0
51.06	3
51.07	0
51.08	1
51.09	1
51.1	1
51.11	0
51.12	2
51.13	1
51.14	1
51.15	1
51.16	3
51.17	2
51.18	3
51.19	2
51.2	1
51.21	1
51.22	2
51.23	2
51.24	2
51.25	0
51.26	0
51.27	2
51.28	1
51.29	3
51.3	4
51.31	1
51.32	2
51.33	1
51.34	1
51.35	3
51.36	0
51.37	1
51.38	2
51.39	2
51.4	0
51.41	3
51.42	0
51.43	6
51.44	0
51.45	1
51.46	0
51.47	2
51.48	0
51.49	1
51.5	3
51.51	1
51.52	1
51.53	1
51.54	0
51.55	1
51.56	1
51.57	1
51.58	2
51.59	1
51.6	2
51.61	4
51.62	1
51.63	2
51.64	5
51.65	0
51.66	0
51.67	1
51.68	2
51.69	1
51.7	2
51.71	2
51.72	1
51.73	1
51.74	0
51.75	3
51.76	1
51.77	2
51.78	2
51.79	1
51.8	2
51.81	2
51.82	0
51.83	4
51.84	2
51.85	1
51.86	2
51.87	0
51.88	1
51.89	1
51.9	3
51.91	0
51.92	1
51.93	2
51.94	2
51.95	1
51.96	0
51.97	1
51.98	0
51.99	1
52	4
52.01	0
52.02	0
52.03	0
52.04	2
52.05	0
52.06	0
52.07	2
52.08	1
52.09	0
52.1	2
52.11	1
52.12	3
52.13	2
52.14	1
52.15	0
52.16	1
52.17	0
52.18	2
52.19	1
52.2	2
52.21	1
52.22	1
52.23	2
52.24	1
52.25	2
52.26	2
52.27	4
52.28	0
52.29	6
52.3	2
52.31	3
52.32	1
52.33	1
52.34	1
52.35	2
52.36	1
52.37	1
52.38	1
52.39	2
52.4	1
52.41	2
52.42	0
52.43	0
52.44	1
52.45	3
52.46	0
52.47	0
52.48	0
52.49	2
52.5	3
52.51	2
52.52	3
52.53	0
52.54	1
52.55	0
52.56	0
52.57	3
52.58	3
52.59	0
52.6	0
52.61	4
52.62	1
52.63	1
52.64	0
52.65	0
52.66	3
52.67	2
52.68	2
52.69	0
52.7	1
52.71	2
52.72	2
52.73	2
52.74	1
52.75	3
52.76	1
52.77	3
52.78	2
52.79	1
52.8	1
52.81	2
52.82	0
52.83	2
52.84	2
52.85	0
52.86	1
52.87	2
52.88	2
52.89	1
52.9	2
52.91	0
52.92	0
52.93	3
52.94	4
52.95	2
52.96	1
52.97	1
52.98	0
52.99	3
53	0
53.01	1
53.02	3
53.03	2
53.04	1
53.05	1
53.06	4
53.07	1
53.08	3
53.09	1
53.1	2
53.11	3
53.12	1
53.13	2
53.14	3
53.15	0
53.16	1
53.17	1
53.18	3
53.19	3
53.2	2
53.21	2
53.22	6
53.23	1
53.24	4
53.25	0
53.26	3
53.27	1
53.28	1
53.29	1
53.3	3
53.31	2
53.32	2
53.33	0
53.34	1
53.35	4
53.36	4
53.37	2
53.38	1
53.39	1
53.4	2
53.41	3
53.42	2
53.43	1
53.44	1
53.45	3
53.46	5
53.47	1
53.48	2
53.49	1
53.5	5
53.51	1
53.52	0
53.53	3
53.54	0
53.55	1
53.56	0
53.57	2
53.58	3
53.59	1
53.6	2
53.61	1
53.62	2
53.63	2
53.64	4
53.65	4
53.66	6
53.67	1
53.68	3
53.69	3
53.7	1
53.71	4
53.72	4
53.73	3
53.74	3
53.75	2
53.76	2
53.77	1
53.78	2
53.79	0
53.8	4
53.81	2
53.82	3
53.83	2
53.84	3
53.85	2
53.86	2
53.87	5
53.88	1
53.89	4
53.9	3
53.91	2
53.92	0
53.93	1
53.94	4
53.95	0
53.96	1
53.97	0
53.98	5
53.99	3
54	2
54.01	4
54.02	4
54.03	2
54.04	4
54.05	4
54.06	4
54.07	1
54.08	2
54.09	2
54.1	1
54.11	3
54.12	3
54.13	0
54.14	5
54.15	2
54.16	1
54.17	1
54.18	2
54.19	2
54.2	0
54.21	2
54.22	1
54.23	2
54.24	0
54.25	0
54.26	4
54.27	1
54.28	1
54.29	0
54.3	4
54.31	4
54.32	0
54.33	3
54.34	1
54.35	4
54.36	2
54.37	1
54.38	3
54.39	1
54.4	5
54.41	3
54.42	1
54.43	2
54.44	0
54.45	2
54.46	3
54.47	1
54.48	1
54.49	2
54.5	2
54.51	4
54.52	1
54.53	2
54.54	3
54.55	1
54.56	2
54.57	1
54.58	1
54.59	1
54.6	2
54.61	3
54.62	0
54.63	2
54.64	3
54.65	5
54.66	4
54.67	1
54.68	2
54.69	1
54.7	1
54.71	1
54.72	3
54.73	1
54.74	3
54.75	1
54.76	4
54.77	0
54.78	1
54.79	0
54.8	0
54.81	1
54.82	2
54.83	1
54.84	2
54.85	0
54.86	3
54.87	0
54.88	1
54.89	2
54.9	4
54.91	2
54.92	1
54.93	1
54.94	0
54.95	1
54.96	3
54.97	1
54.98	1
54.99	1
55	0
55.01	0
55.02	4
55.03	4
55.04	2
55.05	2
55.06	1
55.07	1
55.08	0
55.09	0
55.1	4
55.11	4
55.12	1
55.13	0
55.14	2
55.15	1
55.16	0
55.17	2
55.18	0
55.19	2
55.2	0
55.21	5
55.22	3
55.23	1
55.24	4
55.25	3
55.26	2
55.27	2
55.28	2
55.29	3
55.3	1
55.31	1
55.32	3
55.33	2
55.34	2
55.35	2
55.36	3
55.37	2
55.38	3
55.39	1
55.4	5
55.41	2
55.42	2
55.43	4
55.44	1
55.45	2
55.46	2
55.47	0
55.48	0
55.49	4
55.5	2
55.51	0
55.52	1
55.53	2
55.54	0
55.55	7
55.56	0
55.57	2
55.58	0
55.59	1
55.6	0
55.61	0
55.62	0
55.63	2
55.64	2
55.65	1
55.66	2
55.67	3
55.68	0
55.69	2
55.7	1
55.71	1
55.72	1
55.73	2
55.74	1
55.75	1
55.76	2
55.77	0
55.78	1
55.79	1
55.8	1
55.81	0
55.82	3
55.83	2
55.84	4
55.85	1
55.86	1
55.87	1
55.88	2
55.89	0
55.9	2
55.91	1
55.92	2
55.93	2
55.94	2
55.95	0
55.96	1
55.97	0
55.98	1
55.99	1
56	2
56.01	1
56.02	1
56.03	1
56.04	3
56.05	4
56.06	2
56.07	3
56.08	0
56.09	1
56.1	1
56.11	1
56.12	2
56.13	2
56.14	3
56.15	3
56.16	1
56.17	0
56.18	0
56.19	2
56.2	0
56.21	1
56.22	1
56.23	2
56.24	3
56.25	0
56.26	1
56.27	0
56.28	0
56.29	0
56.3	1
56.31	2
56.32	3
56.33	1
56.34	0
56.35	0
56.36	4
56.37	2
56.38	3
56.39	4
56.4	1
56.41	1
56.42	4
56.43	1
56.44	0
56.45	1
56.46	0
56.47	1
56.48	1
56.49	3
56.5	2
56.51	2
56.52	0
56.53	2
56.54	0
56.55	0
56.56	1
56.57	1
56.58	0
56.59	3
56.6	1
56.61	1
56.62	2
56.63	1
56.64	2
56.65	0
56.66	2
56.67	2
56.68	0
56.69	0
56.7	1
56.71	1
56.72	2
56.73	2
56.74	1
56.75	0
56.76	3
56.77	2
56.78	2
56.79	1
56.8	1
56.81	1
56.82	1
56.83	1
56.84	0
56.85	0
56.86	1
56.87	2
56.88	1
56.89	0
56.9	2
56.91	0
56.92	2
56.93	2
56.94	1
56.95	2
56.96	1
56.97	0
56.98	3
56.99	0
57	2
57.01	2
57.02	1
57.03	1
57.04	1
57.05	4
57.06	0
57.07	1
57.08	2
57.09	2
57.1	2
57.11	2
57.12	1
57.13	2
57.14	1
57.15	2
57.16	0
57.17	1
57.18	1
57.19	0
57.2	2
57.21	2
57.22	2
57.23	1
57.24	0
57.25	1
57.26	1
57.27	1
57.28	4
57.29	0
57.3	1
57.31	0
57.32	2
57.33	4
57.34	2
57.35	1
57.36	2
57.37	1
57.38	0
57.39	2
57.4	2
57.41	1
57.42	0
57.43	0
57.44	0
57.45	0
57.46	1
57.47	1
57.48	1
57.49	1
57.5	2
57.51	3
57.52	3
57.53	4
57.54	1
57.55	0
57.56	0
57.57	0
57.58	1
57.59	0
57.6	1
57.61	2
57.62	0
57.63	0
57.64	2
57.65	0
57.66	3
57.67	2
57.68	0
57.69	1
57.7	2
57.71	2
57.72	1
57.73	1
57.74	1
57.75	2
57.76	3
57.77	1
57.78	2
57.79	1
57.8	0
57.81	0
57.82	2
57.83	2
57.84	1
57.85	2
57.86	1
57.87	0
57.88	0
57.89	2
57.9	0
57.91	1
57.92	1
57.93	3
57.94	2
57.95	4
57.96	3
57.97	1
57.98	0
57.99	2
58	4
58.01	2
58.02	2
58.03	1
58.04	5
58.05	1
58.06	2
58.07	2
58.08	0
58.09	1
58.1	1
58.11	0
58.12	1
58.13	0
58.14	1
58.15	0
58.16	4
58.17	2
58.18	2
58.19	4
58.2	2
58.21	1
58.22	1
58.23	1
58.24	0
58.25	3
58.26	3
58.27	0
58.28	1
58.29	2
58.3	1
58.31	2
58.32	1
58.33	2
58.34	3
58.35	3
58.36	0
58.37	1
58.38	0
58.39	2
58.4	2
58.41	1
58.42	1
58.43	1
58.44	2
58.45	1
58.46	2
58.47	1
58.48	0
58.49	0
58.5	2
58.51	1
58.52	1
58.53	2
58.54	0
58.55	0
58.56	0
58.57	1
58.58	0
58.59	1
58.6	0
58.61	1
58.62	2
58.63	1
58.64	0
58.65	2
58.66	0
58.67	2
58.68	2
58.69	2
58.7	1
58.71	1
58.72	0
58.73	1
58.74	4
58.75	1
58.76	3
58.77	0
58.78	2
58.79	1
58.8	3
58.81	1
58.82	3
58.83	1
58.84	0
58.85	1
58.86	2
58.87	0
58.88	1
58.89	0
58.9	2
58.91	1
58.92	3
58.93	1
58.94	1
58.95	1
58.96	1
58.97	1
58.98	1
58.99	0
59	1
59.01	2
59.02	1
59.03	2
59.04	1
59.05	0
59.06	2
59.07	2
59.08	3
59.09	2
59.1	1
59.11	1
59.12	1
59.13	1
59.14	0
59.15	0
59.16	0
59.17	0
59.18	0
59.19	1
59.2	0
59.21	1
59.22	1
59.23	1
59.24	4
59.25	1
59.26	2
59.27	1
59.28	1
59.29	0
59.3	3
59.31	1
59.32	2
59.33	2
59.34	3
59.35	0
59.36	4
59.37	2
59.38	0
59.39	4
59.4	1
59.41	2
59.42	2
59.43	1
59.44	2
59.45	4
59.46	3
59.47	2
59.48	2
59.49	0
59.5	1
59.51	1
59.52	2
59.53	1
59.54	1
59.55	3
59.56	1
59.57	1
59.58	1
59.59	0
59.6	1
59.61	1
59.62	0
59.63	4
59.64	0
59.65	2
59.66	3
59.67	2
59.68	0
59.69	1
59.7	0
59.71	1
59.72	0
59.73	4
59.74	3
59.75	4
59.76	1
59.77	2
59.78	2
59.79	0
59.8	2
59.81	4
59.82	1
59.83	2
59.84	3
59.85	0
59.86	0
59.87	2
59.88	1
59.89	4
59.9	1
59.91	1
59.92	0
59.93	2
59.94	1
59.95	1
59.96	0
59.97	1
59.98	2
59.99	0
60	0
60.01	1
60.02	0
60.03	0
60.04	3
60.05	2
60.06	0
60.07	4
60.08	2
60.09	3
60.1	0
60.11	0
60.12	0
60.13	2
60.14	0
60.15	2
60.16	1
60.17	0
60.18	2
60.19	2
60.2	1
60.21	1
60.22	1
60.23	3
60.24	2
60.25	1
60.26	1
60.27	1
60.28	1
60.29	0
60.3	2
60.31	2
60.32	2
60.33	1
60.34	2
60.35	0
60.36	1
60.37	0
60.38	1
60.39	4
60.4	2
60.41	1
60.42	2
60.43	1
60.44	2
60.45	2
60.46	2
60.47	3
60.48	0
60.49	0
60.5	0
60.51	1
60.52	1
60.53	5
60.54	2
60.55	0
60.56	3
60.57	0
60.58	2
60.59	0
60.6	2
60.61	3
60.62	5
60.63	1
60.64	0
60.65	0
60.66	1
60.67	2
60.68	1
60.69	2
60.7	3
60.71	1
60.72	2
60.73	0
60.74	1
60.75	0
60.76	1
60.77	1
60.78	3
60.79	1
60.8	2
60.81	3
60.82	1
60.83	3
60.84	0
60.85	1
60.86	0
60.87	1
60.88	1
60.89	3
60.9	4
60.91	0
60.92	2
60.93	2
60.94	1
60.95	1
60.96	3
60.97	0
60.98	3
60.99	1
61	1
61.01	3
61.02	2
61.03	2
61.04	0
61.05	1
61.06	3
61.07	1
61.08	2
61.09	2
61.1	0
61.11	2
61.12	1
61.13	1
61.14	2
61.15	1
61.16	0
61.17	0
61.18	0
61.19	2
61.2	0
61.21	1
61.22	1
61.23	0
61.24	1
61.25	1
61.26	2
61.27	1
61.28	1
61.29	3
61.3	1
61.31	2
61.32	2
61.33	1
61.34	0
61.35	4
61.36	1
61.37	2
61.38	0
61.39	1
61.4	1
61.41	0
61.42	2
61.43	1
61.44	0
61.45	0
61.46	1
61.47	0
61.48	1
61.49	1
61.5	1
61.51	0
61.52	1
61.53	3
61.54	2
61.55	0
61.56	1
61.57	2
61.58	1
61.59	0
61.6	2
61.61	1
61.62	0
61.63	2
61.64	0
61.65	0
61.66	1
61.67	1
61.68	0
61.69	0
61.7	2
61.71	1
61.72	2
61.73	0
61.74	3
61.75	2
61.76	3
61.77	1
61.78	2
61.79	1
61.8	0
61.81	0
61.82	0
61.83	2
61.84	2
61.85	2
61.86	0
61.87	2
61.88	3
61.89	3
61.9	1
61.91	0
61.92	1
61.93	1
61.94	2
61.95	1
61.96	2
61.97	4
61.98	0
61.99	1
62	1
62.01	3
62.02	0
62.03	1
62.04	1
62.05	3
62.06	0
62.07	2
62.08	0
62.09	0
62.1	1
62.11	1
62.12	1
62.13	1
62.14	0
62.15	1
62.16	2
62.17	1
62.18	0
62.19	1
62.2	0
62.21	2
62.22	1
62.23	2
62.24	1
62.25	2
62.26	0
62.27	1
62.28	0
62.29	2
62.3	0
62.31	0
62.32	1
62.33	0
62.34	1
62.35	0
62.36	0
62.37	2
62.38	0
62.39	2
62.4	2
62.41	1
62.42	3
62.43	1
62.44	1
62.45	1
62.46	0
62.47	1
62.48	1
62.49	2
62.5	1
62.51	1
62.52	1
62.53	4
62.54	1
62.55	2
62.56	3
62.57	1
62.58	3
62.59	1
62.6	2
62.61	2
62.62	3
62.63	2
62.64	1
62.65	2
62.66	2
62.67	1
62.68	1
62.69	2
62.7	0
62.71	2
62.72	1
62.73	2
62.74	0
62.75	0
62.76	1
62.77	3
62.78	2
62.79	4
62.8	0
62.81	3
62.82	1
62.83	1
62.84	1
62.85	2
62.86	1
62.87	0
62.88	0
62.89	1
62.9	0
62.91	2
62.92	1
62.93	1
62.94	0
62.95	1
62.96	0
62.97	2
62.98	1
62.99	0
63	3
63.01	1
63.02	0
63.03	0
63.04	2
63.05	2
63.06	4
63.07	1
63.08	2
63.09	1
63.1	0
63.11	1
63.12	2
63.13	2
63.14	3
63.15	3
63.16	1
63.17	0
63.18	1
63.19	3
63.2	0
63.21	0
63.22	5
63.23	1
63.24	0
63.25	3
63.26	2
63.27	0
63.28	1
63.29	2
63.3	0
63.31	4
63.32	4
63.33	0
63.34	1
63.35	0
63.36	2
63.37	1
63.38	0
63.39	2
63.4	0
63.41	0
63.42	0
63.43	0
63.44	1
63.45	2
63.46	2
63.47	0
63.48	2
63.49	0
63.5	0
63.51	2
63.52	1
63.53	2
63.54	2
63.55	0
63.56	0
63.57	1
63.58	1
63.59	1
63.6	2
63.61	3
63.62	0
63.63	2
63.64	1
63.65	5
63.66	0
63.67	3
63.68	0
63.69	1
63.7	0
63.71	1
63.72	1
63.73	1
63.74	2
63.75	2
63.76	0
63.77	1
63.78	0
63.79	2
63.8	1
63.81	2
63.82	0
63.83	1
63.84	2
63.85	1
63.86	1
63.87	4
63.88	2
63.89	2
63.9	2
63.91	1
63.92	1
63.93	3
63.94	3
63.95	2
63.96	2
63.97	1
63.98	3
63.99	2
64	0
64.01	0
64.02	0
64.03	1
64.04	1
64.05	1
64.06	0
64.07	0
64.08	1
64.09	1
64.1	1
64.11	3
64.12	2
64.13	1
64.14	3
64.15	1
64.16	1
64.17	3
64.18	1
64.19	0
64.2	4
64.21	1
64.22	1
64.23	0
64.24	1
64.25	1
64.26	1
64.27	0
64.28	0
64.29	1
64.3	1
64.31	4
64.32	0
64.33	2
64.34	1
64.35	2
64.36	1
64.37	0
64.38	2
64.39	0
64.4	3
64.41	1
64.42	1
64.43	1
64.44	2
64.45	1
64.46	0
64.47	2
64.48	1
64.49	1
64.5	2
64.51	3
64.52	1
64.53	2
64.54	6
64.55	2
64.56	2
64.57	2
64.58	1
64.59	3
64.6	0
64.61	1
64.62	1
64.63	0
64.64	2
64.65	2
64.66	1
64.67	1
64.68	1
64.69	1
64.7	0
64.71	0
64.72	2
64.73	1
64.74	2
64.75	0
64.76	3
64.77	1
64.78	1
64.79	3
64.8	1
64.81	1
64.82	2
64.83	1
64.84	0
64.85	0
64.86	2
64.87	0
64.88	0
64.89	1
64.9	1
64.91	1
64.92	2
64.93	1
64.94	1
64.95	2
64.96	4
64.97	0
64.98	0
64.99	1
65	1
65.01	2
65.02	4
65.03	1
65.04	2
65.05	0
65.06	1
65.07	0
65.08	2
65.09	2
65.1	0
65.11	1
65.12	0
65.13	2
65.14	0
65.15	1
65.16	3
65.17	1
65.18	2
65.19	0
65.2	1
65.21	1
65.22	1
65.23	1
65.24	4
65.25	0
65.26	1
65.27	2
65.28	0
65.29	2
65.3	0
65.31	3
65.32	2
65.33	0
65.34	1
65.35	3
65.36	0
65.37	2
65.38	1
65.39	2
65.4	0
65.41	0
65.42	1
65.43	1
65.44	0
65.45	1
65.46	0
65.47	1
65.48	1
65.49	2
65.5	0
65.51	0
65.52	1
65.53	2
65.54	1
65.55	0
65.56	5
65.57	2
65.58	1
65.59	2
65.6	1
65.61	0
65.62	1
65.63	1
65.64	2
65.65	0
65.66	0
65.67	1
65.68	3
65.69	1
65.7	2
65.71	1
65.72	0
65.73	1
65.74	1
65.75	0
65.76	1
65.77	1
65.78	3
65.79	2
65.8	1
65.81	1
65.82	2
65.83	2
65.84	0
65.85	3
65.86	6
65.87	1
65.88	0
65.89	0
65.9	6
65.91	0
65.92	2
65.93	2
65.94	1
65.95	1
65.96	1
65.97	0
65.98	1
65.99	1
66	1
66.01	0
66.02	3
66.03	3
66.04	0
66.05	0
66.06	0
66.07	0
66.08	1
66.09	2
66.1	3
66.11	1
66.12	1
66.13	0
66.14	3
66.15	0
66.16	2
66.17	1
66.18	3
66.19	2
66.2	1
66.21	2
66.22	3
66.23	1
66.24	3
66.25	2
66.26	1
66.27	0
66.28	0
66.29	1
66.3	0
66.31	0
66.32	0
66.33	0
66.34	1
66.35	1
66.36	0
66.37	1
66.38	4
66.39	1
66.4	0
66.41	3
66.42	0
66.43	2
66.44	1
66.45	2
66.46	2
66.47	3
66.48	1
66.49	0
66.5	2
66.51	2
66.52	0
66.53	5
66.54	1
66.55	2
66.56	0
66.57	0
66.58	0
66.59	3
66.6	1
66.61	2
66.62	0
66.63	0
66.64	0
66.65	2
66.66	1
66.67	2
66.68	1
66.69	3
66.7	0
66.71	0
66.72	0
66.73	0
66.74	1
66.75	1
66.76	0
66.77	2
66.78	3
66.79	3
66.8	0
66.81	1
66.82	0
66.83	2
66.84	0
66.85	2
66.86	1
66.87	2
66.88	1
66.89	0
66.9	1
66.91	1
66.92	0
66.93	0
66.94	1
66.95	0
66.96	1
66.97	1
66.98	1
66.99	1
67	1
67.01	1
67.02	0
67.03	0
67.04	1
67.05	0
67.06	2
67.07	1
67.08	0
67.09	3
67.1	1
67.11	0
67.12	3
67.13	1
67.14	1
67.15	1
67.16	0
67.17	2
67.18	1
67.19	0
67.2	0
67.21	2
67.22	0
67.23	0
67.24	2
67.25	0
67.26	0
67.27	2
67.28	1
67.29	0
67.3	1
67.31	1
67.32	2
67.33	0
67.34	0
67.35	1
67.36	0
67.37	0
67.38	2
67.39	0
67.4	0
67.41	3
67.42	0
67.43	2
67.44	1
67.45	1
67.46	2
67.47	0
67.48	2
67.49	2
67.5	1
67.51	2
67.52	1
67.53	2
67.54	1
67.55	2
67.56	0
67.57	0
67.58	2
67.59	0
67.6	3
67.61	0
67.62	4
67.63	0
67.64	2
67.65	0
67.66	1
67.67	0
67.68	0
67.69	1
67.7	0
67.71	0
67.72	2
67.73	2
67.74	1
67.75	0
67.76	1
67.77	0
67.78	1
67.79	4
67.8	1
67.81	1
67.82	0
67.83	2
67.84	1
67.85	1
67.86	2
67.87	1
67.88	0
67.89	0
67.9	2
67.91	0
67.92	2
67.93	1
67.94	5
67.95	2
67.96	2
67.97	0
67.98	3
67.99	2
68	1
68.01	0
68.02	0
68.03	2
68.04	1
68.05	1
68.06	1
68.07	3
68.08	3
68.09	1
68.1	0
68.11	1
68.12	1
68.13	2
68.14	1
68.15	2
68.16	0
68.17	0
68.18	0
68.19	2
68.2	1
68.21	0
68.22	1
68.23	0
68.24	1
68.25	0
68.26	0
68.27	0
68.28	0
68.29	0
68.3	1
68.31	1
68.32	0
68.33	0
68.34	2
68.35	2
68.36	0
68.37	0
68.38	1
68.39	1
68.4	0
68.41	3
68.42	3
68.43	0
68.44	0
68.45	1
68.46	1
68.47	3
68.48	2
68.49	0
68.5	2
68.51	1
68.52	1
68.53	1
68.54	0
68.55	2
68.56	1
68.57	0
68.58	2
68.59	3
68.6	0
68.61	0
68.62	3
68.63	0
68.64	0
68.65	0
68.66	2
68.67	1
68.68	1
68.69	0
68.7	2
68.71	0
68.72	3
68.73	1
68.74	1
68.75	1
68.76	2
68.77	0
68.78	1
68.79	3
68.8	1
68.81	0
68.82	3
68.83	2
68.84	1
68.85	2
68.86	0
68.87	3
68.88	1
68.89	1
68.9	1
68.91	2
68.92	1
68.93	0
68.94	0
68.95	1
68.96	0
68.97	1
68.98	1
68.99	0
69	1
69.01	0
69.02	0
69.03	1
69.04	1
69.05	1
69.06	0
69.07	1
69.08	2
69.09	0
69.1	0
69.11	2
69.12	1
69.13	1
69.14	4
69.15	1
69.16	0
69.17	2
69.18	2
69.19	0
69.2	2
69.21	1
69.22	2
69.23	1
69.24	0
69.25	2
69.26	1
69.27	2
69.28	1
69.29	1
69.3	0
69.31	0
69.32	0
69.33	1
69.34	0
69.35	2
69.36	0
69.37	1
69.38	0
69.39	0
69.4	1
69.41	3
69.42	2
69.43	2
69.44	0
69.45	2
69.46	4
69.47	0
69.48	1
69.49	0
69.5	3
69.51	3
69.52	0
69.53	2
69.54	1
69.55	1
69.56	0
69.57	0
69.58	1
69.59	2
69.6	1
69.61	3
69.62	0
69.63	0
69.64	0
69.65	0
69.66	2
69.67	1
69.68	2
69.69	0
69.7	2
69.71	4
69.72	0
69.73	1
69.74	0
69.75	0
69.76	1
69.77	4
69.78	2
69.79	4
69.8	0
69.81	2
69.82	2
69.83	3
69.84	1
69.85	2
69.86	3
69.87	2
69.88	1
69.89	3
69.9	1
69.91	2
69.92	1
69.93	2
69.94	1
69.95	0
69.96	1
69.97	2
69.98	3
69.99	1
70	1
70.01	2
70.02	1
70.03	1
70.04	2
70.05	3
70.06	0
70.07	1
70.08	1
70.09	1
70.1	2
70.11	0
70.12	0
70.13	2
70.14	0
70.15	1
70.16	2
70.17	0
70.18	0
70.19	0
70.2	2
70.21	2
70.22	2
70.23	1
70.24	0
70.25	0
70.26	0
70.27	3
70.28	2
70.29	2
70.3	0
70.31	0
70.32	1
70.33	2
70.34	0
70.35	0
70.36	3
70.37	2
70.38	2
70.39	1
70.4	3
70.41	1
70.42	1
70.43	1
70.44	1
70.45	2
70.46	2
70.47	2
70.48	1
70.49	3
70.5	2
70.51	1
70.52	2
70.53	3
70.54	1
70.55	1
70.56	1
70.57	1
70.58	0
70.59	3
70.6	3
70.61	3
70.62	3
70.63	0
70.64	1
70.65	1
70.66	0
70.67	3
70.68	3
70.69	0
70.7	0
70.71	1
70.72	1
70.73	2
70.74	2
70.75	1
70.76	2
70.77	3
70.78	3
70.79	1
70.8	0
70.81	2
70.82	1
70.83	2
70.84	0
70.85	2
70.86	3
70.87	3
70.88	1
70.89	1
70.9	0
70.91	2
70.92	3
70.93	1
70.94	1
70.95	0
70.96	0
70.97	0
70.98	2
70.99	1
71	0
71.01	1
71.02	1
71.03	1
71.04	1
71.05	1
71.06	2
71.07	3
71.08	0
71.09	0
71.1	1
71.11	3
71.12	1
71.13	3
71.14	2
71.15	2
71.16	2
71.17	1
71.18	0
71.19	0
71.2	2
71.21	1
71.22	2
71.23	1
71.24	0
71.25	0
71.26	2
71.27	2
71.28	0
71.29	3
71.3	4
71.31	1
71.32	0
71.33	0
71.34	2
71.35	4
71.36	1
71.37	1
71.38	2
71.39	1
71.4	1
71.41	1
71.42	1
71.43	2
71.44	0
71.45	2
71.46	0
71.47	0
71.48	1
71.49	0
71.5	2
71.51	0
71.52	3
71.53	2
71.54	0
71.55	0
71.56	1
71.57	2
71.58	1
71.59	1
71.6	1
71.61	1
71.62	2
71.63	1
71.64	0
71.65	0
71.66	0
71.67	0
71.68	2
71.69	2
71.7	0
71.71	2
71.72	1
71.73	2
71.74	1
71.75	0
71.76	0
71.77	1
71.78	2
71.79	1
71.8	1
71.81	0
71.82	0
71.83	2
71.84	2
71.85	2
71.86	2
71.87	2
71.88	0
71.89	0
71.9	0
71.91	1
71.92	0
71.93	4
71.94	1
71.95	3
71.96	2
71.97	3
71.98	0
71.99	1
72	0
72.01	0
72.02	3
72.03	1
72.04	0
72.05	1
72.06	0
72.07	1
72.08	0
72.09	1
72.1	1
72.11	1
72.12	1
72.13	0
72.14	3
72.15	0
72.16	0
72.17	1
72.18	0
72.19	1
72.2	4
72.21	1
72.22	1
72.23	1
72.24	1
72.25	3
72.26	2
72.27	3
72.28	3
72.29	1
72.3	1
72.31	0
72.32	2
72.33	0
72.34	0
72.35	1
72.36	3
72.37	2
72.38	3
72.39	4
72.4	2
72.41	5
72.42	3
72.43	4
72.44	7
72.45	4
72.46	11
72.47	21
72.48	21
72.49	46
72.5	85
72.51	253
72.52	612
72.53	1782
72.54	7398
72.55	19317
72.56	15865
72.57	5726
72.58	2393
72.59	1130
72.6	358
72.61	106
72.62	30
72.63	17
72.64	10
72.65	3
72.66	2
72.67	3
72.68	2
72.69	2
72.7	0
72.71	3
72.72	2
72.73	3
72.74	3
72.75	2
72.76	1
72.77	1
72.78	1
72.79	0
72.8	1
72.81	2
72.82	2
72.83	3
72.84	2
72.85	0
72.86	1
72.87	0
72.88	1
72.89	0
72.9	0
72.91	2
72.92	3
72.93	1
72.94	2
72.95	2
72.96	2
72.97	2
72.98	1
72.99	2
73	4
73.01	0
73.02	0
73.03	1
73.04	0
73.05	0
73.06	0
73.07	3
73.08	1
73.09	1
73.1	3
73.11	2
73.12	3
73.13	1
73.14	0
73.15	1
73.16	4
73.17	3
73.18	1
73.19	2
73.2	3
73.21	2
73.22	1
73.23	1
73.24	1
73.25	3
73.26	1
73.27	0
73.28	0
73.29	0
73.3	2
73.31	3
73.32	0
73.33	0
73.34	1
73.35	3
73.36	2
73.37	0
73.38	0
73.39	0
73.4	1
73.41	2
73.42	0
73.43	2
73.44	2
73.45	1
73.46	1
73.47	1
73.48	0
73.49	0
73.5	3
73.51	0
73.52	1
73.53	0
73.54	0
73.55	2
73.56	0
73.57	0
73.58	1
73.59	1
73.6	1
73.61	1
73.62	1
73.63	3
73.64	0
73.65	1
73.66	3
73.67	1
73.68	0
73.69	0
73.7	2
73.71	0
73.72	1
73.73	0
73.74	3
73.75	1
73.76	2
73.77	0
73.78	1
73.79	0
73.8	1
73.81	0
73.82	1
73.83	2
73.84	2
73.85	1
73.86	1
73.87	1
73.88	1
73.89	3
73.9	0
73.91	0
73.92	1
73.93	2
73.94	1
73.95	2
73.96	1
73.97	1
73.98	3
73.99	3
74	1
74.01	1
74.02	4
74.03	1
74.04	4
74.05	0
74.06	1
74.07	2
74.08	0
74.09	0
74.1	1
74.11	1
74.12	1
74.13	0
74.14	1
74.15	2
74.16	0
74.17	0
74.18	1
74.19	4
74.2	0
74.21	0
74.22	2
74.23	2
74.24	2
74.25	4
74.26	1
74.27	2
74.28	0
74.29	0
74.3	2
74.31	1
74.32	2
74.33	0
74.34	1
74.35	2
74.36	1
74.37	1
74.38	1
74.39	0
74.4	1
74.41	0
74.42	1
74.43	1
74.44	0
74.45	0
74.46	1
74.47	0
74.48	3
74.49	2
74.5	1
74.51	0
74.52	0
74.53	0
74.54	1
74.55	1
74.56	0
74.57	0
74.58	1
74.59	1
74.6	1
74.61	0
74.62	0
74.63	2
74.64	2
74.65	0
74.66	2
74.67	0
74.68	3
74.69	2
74.7	0
74.71	4
74.72	0
74.73	0
74.74	2
74.75	0
74.76	0
74.77	0
74.78	2
74.79	1
74.8	2
74.81	2
74.82	0
74.83	0
74.84	2
74.85	1
74.86	1
74.87	0
74.88	0
74.89	0
74.9	1
74.91	0
74.92	1
74.93	3
74.94	1
74.95	3
74.96	0
74.97	2
74.98	1
74.99	3
75	1
75.01	2
75.02	0
75.03	3
75.04	3
75.05	3
75.06	0
75.07	0
75.08	0
75.09	2
75.1	0
75.11	2
75.12	4
75.13	1
75.14	4
75.15	1
75.16	2
75.17	4
75.18	1
75.19	0
75.2	0
75.21	2
75.22	1
75.23	0
75.24	1
75.25	2
75.26	1
75.27	0
75.28	2
75.29	0
75.3	0
75.31	3
75.32	0
75.33	3
75.34	2
75.35	2
75.36	0
75.37	1
75.38	0
75.39	1
75.4	1
75.41	0
75.42	1
75.43	1
75.44	2
75.45	1
75.46	1
75.47	1
75.48	1
75.49	0
75.5	1
75.51	3
75.52	1
75.53	0
75.54	0
75.55	1
75.56	2
75.57	0
75.58	5
75.59	1
75.6	0
75.61	1
75.62	0
75.63	0
75.64	0
75.65	1
75.66	0
75.67	0
75.68	0
75.69	0
75.7	1
75.71	2
75.72	2
75.73	1
75.74	0
75.75	1
75.76	1
75.77	0
75.78	3
75.79	0
75.8	4
75.81	0
75.82	0
75.83	1
75.84	2
75.85	0
75.86	0
75.87	1
75.88	0
75.89	0
75.9	1
75.91	0
75.92	0
75.93	0
75.94	3
75.95	2
75.96	1
75.97	2
75.98	1
75.99	0
76	0
76.01	1
76.02	2
76.03	2
76.04	1
76.05	0
76.06	0
76.07	0
76.08	3
76.09	1
76.1	1
76.11	1
76.12	0
76.13	1
76.14	0
76.15	1
76.16	0
76.17	1
76.18	2
76.19	0
76.2	1
76.21	0
76.22	0
76.23	2
76.24	0
76.25	1
76.26	2
76.27	0
76.28	0
76.29	1
76.3	2
76.31	1
76.32	2
76.33	1
76.34	1
76.35	2
76.36	0
76.37	1
76.38	2
76.39	3
76.4	2
76.41	1
76.42	2
76.43	2
76.44	0
76.45	1
76.46	0
76.47	0
76.48	4
76.49	0
76.5	1
76.51	1
76.52	0
76.53	2
76.54	2
76.55	2
76.56	2
76.57	1
76.58	0
76.59	1
76.6	0
76.61	2
76.62	0
76.63	2
76.64	4
76.65	1
76.66	1
76.67	2
76.68	1
76.69	1
76.7	1
76.71	0
76.72	0
76.73	0
76.74	3
76.75	2
76.76	2
76.77	0
76.78	2
76.79	0
76.8	0
76.81	2
76.82	1
76.83	3
76.84	2
76.85	5
76.86	2
76.87	1
76.88	1
76.89	1
76.9	1
76.91	2
76.92	0
76.93	2
76.94	2
76.95	0
76.96	3
76.97	1
76.98	0
76.99	2
77	2
77.01	1
77.02	2
77.03	1
77.04	1
77.05	0
77.06	1
77.07	1
77.08	2
77.09	1
77.1	2
77.11	1
77.12	0
77.13	0
77.14	0
77.15	0
77.16	2
77.17	1
77.18	1
77.19	1
77.2	0
77.21	3
77.22	4
77.23	2
77.24	3
77.25	2
77.26	0
77.27	1
77.28	1
77.29	0
77.3	0
77.31	0
77.32	5
77.33	2
77.34	1
77.35	1
77.36	1
77.37	2
77.38	1
77.39	3
77.4	1
77.41	3
77.42	0
77.43	2
77.44	1
77.45	4
77.46	1
77.47	1
77.48	2
77.49	0
77.5	1
77.51	1
77.52	5
77.53	1
77.54	1
77.55	2
77.56	0
77.57	2
77.58	2
77.59	2
77.6	2
77.61	0
77.62	2
77.63	0
77.64	1
77.65	2
77.66	1
77.67	2
77.68	1
77.69	0
77.7	2
77.71	2
77.72	0
77.73	3
77.74	0
77.75	3
77.76	1
77.77	0
77.78	0
77.79	1
77.8	1
77.81	2
77.82	0
77.83	0
77.84	0
77.85	0
77.86	0
77.87	0
77.88	0
77.89	0
77.9	3
77.91	0
77.92	1
77.93	1
77.94	0
77.95	0
77.96	0
77.97	0
77.98	1
77.99	4
78	0
78.01	2
78.02	2
78.03	3
78.04	3
78.05	1
78.06	0
78.07	3
78.08	3
78.09	0
78.1	1
78.11	1
78.12	1
78.13	1
78.14	2
78.15	2
78.16	2
78.17	0
78.18	1
78.19	2
78.2	0
78.21	1
78.22	0
78.23	0
78.24	1
78.25	0
78.26	1
78.27	0
78.28	1
78.29	0
78.3	0
78.31	3
78.32	1
78.33	2
78.34	0
78.35	2
78.36	0
78.37	2
78.38	3
78.39	1
78.4	1
78.41	1
78.42	1
78.43	1
78.44	3
78.45	2
78.46	2
78.47	2
78.48	3
78.49	1
78.5	0
78.51	1
78.52	0
78.53	0
78.54	1
78.55	0
78.56	1
78.57	1
78.58	2
78.59	4
78.6	1
78.61	1
78.62	1
78.63	1
78.64	1
78.65	0
78.66	2
78.67	3
78.68	3
78.69	0
78.7	0
78.71	2
78.72	3
78.73	2
78.74	1
78.75	1
78.76	1
78.77	2
78.78	0
78.79	1
78.8	0
78.81	3
78.82	0
78.83	1
78.84	2
78.85	0
78.86	3
78.87	2
78.88	4
78.89	0
78.9	1
78.91	0
78.92	1
78.93	1
78.94	1
78.95	0
78.96	2
78.97	2
78.98	0
78.99	2
79	1
79.01	1
79.02	2
79.03	3
79.04	1
79.05	0
79.06	0
79.07	2
79.08	1
79.09	4
79.1	1
79.11	1
79.12	1
79.13	3
79.14	1
79.15	0
79.16	0
79.17	0
79.18	0
79.19	2
79.2	1
79.21	2
79.22	2
79.23	0
79.24	2
79.25	2
79.26	1
79.27	1
79.28	1
79.29	2
79.3	0
79.31	0
79.32	3
79.33	1
79.34	2
79.35	0
79.36	0
79.37	0
79.38	1
79.39	2
79.4	0
79.41	0
79.42	2
79.43	0
79.44	2
79.45	4
79.46	1
79.47	0
79.48	1
79.49	1
79.5	2
79.51	1
79.52	3
79.53	1
79.54	2
79.55	1
79.56	3
79.57	2
79.58	1
79.59	0
79.6	0
79.61	0
79.62	4
79.63	3
79.64	0
79.65	1
79.66	2
79.67	0
79.68	2
79.69	3
79.7	2
79.71	0
79.72	3
79.73	1
79.74	2
79.75	2
79.76	1
79.77	0
79.78	0
79.79	3
79.8	0
79.81	0
79.82	2
79.83	5
79.84	3
79.85	2
79.86	1
79.87	0
79.88	4
79.89	3
79.9	2
79.91	1
79.92	2
79.93	1
79.94	2
79.95	2
79.96	3
79.97	1
79.98	1
79.99	2
80	2
80.01	1
80.02	1
80.03	1
80.04	0
80.05	2
80.06	0
80.07	2
80.08	3
80.09	2
80.1	0
80.11	0
80.12	1
80.13	2
80.14	0
80.15	0
80.16	2
80.17	2
80.18	2
80.19	2
80.2	1
80.21	0
80.22	2
80.23	0
80.24	2
80.25	1
80.26	3
80.27	1
80.28	5
80.29	0
80.3	0
80.31	2
80.32	0
80.33	2
80.34	1
80.35	1
80.36	2
80.37	0
80.38	2
80.39	2
80.4	4
80.41	0
80.42	3
80.43	0
80.44	1
80.45	0
80.46	2
80.47	1
80.48	2
80.49	4
80.5	1
80.51	1
80.52	0
80.53	0
80.54	0
80.55	1
80.56	2
80.57	1
80.58	0
80.59	1
80.6	1
80.61	2
80.62	0
80.63	2
80.64	1
80.65	1
80.66	1
80.67	3
80.68	1
80.69	1
80.7	1
80.71	2
80.72	0
80.73	2
80.74	3
80.75	4
80.76	2
80.77	0
80.78	0
80.79	4
80.8	1
80.81	0
80.82	0
80.83	0
80.84	1
80.85	1
80.86	3
80.87	1
80.88	2
80.89	0
80.9	1
80.91	0
80.92	0
80.93	2
80.94	2
80.95	0
80.96	1
80.97	1
80.98	1
80.99	4
81	0
81.01	2
81.02	2
81.03	0
81.04	1
81.05	0
81.06	2
81.07	1
81.08	0
81.09	1
81.1	0
81.11	2
81.12	1
81.13	2
81.14	0
81.15	1
81.16	0
81.17	2
81.18	1
81.19	2
81.2	1
81.21	1
81.22	0
81.23	0
81.24	1
81.25	0
81.26	0
81.27	2
81.28	3
81.29	3
81.3	1
81.31	1
81.32	4
81.33	2
81.34	1
81.35	1
81.36	0
81.37	0
81.38	2
81.39	0
81.4	2
81.41	4
81.42	2
81.43	1
81.44	2
81.45	1
81.46	0
81.47	1
81.48	1
81.49	3
81.5	2
81.51	1
81.52	1
81.53	1
81.54	0
81.55	3
81.56	2
81.57	1
81.58	2
81.59	3
81.6	0
81.61	0
81.62	2
81.63	2
81.64	0
81.65	2
81.66	0
81.67	0
81.68	2
81.69	2
81.7	2
81.71	2
81.72	2
81.73	2
81.74	1
81.75	3
81.76	1
81.77	3
81.78	1
81.79	3
81.8	3
81.81	1
81.82	1
81.83	2
81.84	0
81.85	1
81.86	3
81.87	1
81.88	1
81.89	1
81.9	0
81.91	1
81.92	1
81.93	1
81.94	0
81.95	0
81.96	1
81.97	1
81.98	0
81.99	2
82	1
82.01	4
82.02	0
82.03	0
82.04	2
82.05	2
82.06	1
82.07	1
82.08	2
82.09	3
82.1	0
82.11	0
82.12	0
82.13	1
82.14	0
82.15	0
82.16	1
82.17	1
82.18	0
82.19	1
82.2	2
82.21	1
82.22	2
82.23	0
82.24	0
82.25	1
82.26	0
82.27	2
82.28	2
82.29	0
82.3	0
82.31	0
82.32	3
82.33	1
82.34	3
82.35	1
82.36	3
82.37	1
82.38	1
82.39	0
82.4	1
82.41	1
82.42	2
82.43	0
82.44	0
82.45	0
82.46	2
82.47	1
82.48	0
82.49	3
82.5	1
82.51	1
82.52	2
82.53	0
82.54	2
82.55	1
82.56	1
82.57	1
82.58	0
82.59	3
82.6	1
82.61	2
82.62	3
82.63	3
82.64	4
82.65	3
82.66	1
82.67	0
82.68	0
82.69	0
82.7	1
82.71	0
82.72	4
82.73	2
82.74	1
82.75	2
82.76	1
82.77	2
82.78	3
82.79	1
82.8	1
82.81	1
82.82	1
82.83	1
82.84	1
82.85	3
82.86	2
82.87	2
82.88	2
82.89	1
82.9	1
82.91	3
82.92	1
82.93	4
82.94	1
82.95	1
82.96	0
82.97	1
82.98	1
82.99	2
83	0
83.01	0
83.02	3
83.03	1
83.04	1
83.05	1
83.06	1
83.07	0
83.08	0
83.09	2
83.1	4
83.11	0
83.12	0
83.13	1
83.14	1
83.15	1
83.16	1
83.17	1
83.18	0
83.19	2
83.2	2
83.21	1
83.22	1
83.23	1
83.24	1
83.25	1
83.26	1
83.27	1
83.28	0
83.29	4
83.3	1
83.31	6
83.32	1
83.33	0
83.34	1
83.35	0
83.36	2
83.37	0
83.38	4
83.39	2
83.4	2
83.41	2
83.42	0
83.43	1
83.44	1
83.45	0
83.46	0
83.47	4
83.48	1
83.49	0
83.5	0
83.51	3
83.52	1
83.53	2
83.54	1
83.55	2
83.56	0
83.57	1
83.58	2
83.59	0
83.6	1
83.61	3
83.62	3
83.63	2
83.64	2
83.65	1
83.66	2
83.67	3
83.68	2
83.69	4
83.7	0
83.71	1
83.72	2
83.73	2
83.74	2
83.75	0
83.76	0
83.77	0
83.78	1
83.79	0
83.8	0
83.81	1
83.82	0
83.83	1
83.84	2
83.85	1
83.86	3
83.87	1
83.88	0
83.89	0
83.9	1
83.91	0
83.92	0
83.93	1
83.94	2
83.95	0
83.96	1
83.97	1
83.98	2
83.99	1
84	1
84.01	1
84.02	1
84.03	1
84.04	1
84.05	2
84.06	0
84.07	3
84.08	2
84.09	0
84.1	1
84.11	1
84.12	3
84.13	1
84.14	1
84.15	4
84.16	2
84.17	2
84.18	0
84.19	1
84.2	0
84.21	2
84.22	1
84.23	0
84.24	1
84.25	1
84.26	2
84.27	1
84.28	1
84.29	0
84.3	2
84.31	1
84.32	3
84.33	0
84.34	3
84.35	2
84.36	2
84.37	1
84.38	2
84.39	1
84.4	2
84.41	0
84.42	1
84.43	3
84.44	3
84.45	0
84.46	1
84.47	2
84.48	1
84.49	1
84.5	1
84.51	1
84.52	0
84.53	1
84.54	1
84.55	0
84.56	0
84.57	1
84.58	4
84.59	1
84.6	0
84.61	0
84.62	1
84.63	0
84.64	0
84.65	0
84.66	3
84.67	3
84.68	3
84.69	1
84.7	0
84.71	0
84.72	0
84.73	0
84.74	0
84.75	2
84.76	0
84.77	3
84.78	5
84.79	1
84.8	1
84.81	1
84.82	3
84.83	0
84.84	0
84.85	0
84.86	1
84.87	1
84.88	4
84.89	1
84.9	3
84.91	2
84.92	2
84.93	2
84.94	1
84.95	0
84.96	0
84.97	3
84.98	0
84.99	0
85	2
85.01	1
85.02	1
85.03	0
85.04	2
85.05	2
85.06	2
85.07	1
85.08	1
85.09	1
85.1	2
85.11	1
85.12	3
85.13	2
85.14	2
85.15	4
85.16	1
85.17	3
85.18	2
85.19	0
85.2	0
85.21	0
85.22	1
85.23	1
85.24	0
85.25	1
85.26	2
85.27	2
85.28	1
85.29	3
85.3	0
85.31	1
85.32	1
85.33	2
85.34	2
85.35	0
85.36	1
85.37	0
85.38	0
85.39	3
85.4	1
85.41	3
85.42	3
85.43	1
85.44	0
85.45	2
85.46	0
85.47	2
85.48	1
85.49	1
85.5	0
85.51	1
85.52	0
85.53	1
85.54	2
85.55	2
85.56	2
85.57	1
85.58	1
85.59	0
85.6	0
85.61	0
85.62	0
85.63	0
85.64	3
85.65	1
85.66	2
85.67	3
85.68	1
85.69	2
85.7	1
85.71	1
85.72	0
85.73	1
85.74	0
85.75	1
85.76	0
85.77	2
85.78	2
85.79	1
85.8	1
85.81	1
85.82	3
85.83	2
85.84	0
85.85	6
85.86	0
85.87	2
85.88	2
85.89	1
85.9	1
85.91	1
85.92	0
85.93	1
85.94	1
85.95	2
85.96	2
85.97	2
85.98	1
85.99	1
86	1
86.01	2
86.02	1
86.03	1
86.04	0
86.05	0
86.06	0
86.07	0
86.08	1
86.09	1
86.1	0
86.11	0
86.12	1
86.13	0
86.14	4
86.15	0
86.16	1
86.17	1
86.18	1
86.19	0
86.2	2
86.21	0
86.22	1
86.23	3
86.24	0
86.25	4
86.26	1
86.27	0
86.28	0
86.29	2
86.3	2
86.31	1
86.32	2
86.33	1
86.34	4
86.35	0
86.36	1
86.37	3
86.38	2
86.39	1
86.4	0
86.41	0
86.42	2
86.43	0
86.44	1
86.45	2
86.46	1
86.47	3
86.48	1
86.49	0
86.5	3
86.51	3
86.52	3
86.53	0
86.54	0
86.55	2
86.56	0
86.57	3
86.58	2
86.59	2
86.6	1
86.61	1
86.62	3
86.63	0
86.64	1
86.65	2
86.66	1
86.67	3
86.68	2
86.69	2
86.7	2
86.71	1
86.72	1
86.73	1
86.74	0
86.75	1
86.76	2
86.77	1
86.78	0
86.79	2
86.8	1
86.81	0
86.82	1
86.83	1
86.84	0
86.85	0
86.86	2
86.87	1
86.88	1
86.89	0
86.9	1
86.91	1
86.92	2
86.93	0
86.94	1
86.95	2
86.96	1
86.97	4
86.98	0
86.99	0
87	1
87.01	0
87.02	2
87.03	0
87.04	2
87.05	1
87.06	2
87.07	3
87.08	0
87.09	2
87.1	1
87.11	2
87.12	3
87.13	1
87.14	0
87.15	1
87.16	0
87.17	0
87.18	1
87.19	2
87.2	2
87.21	1
87.22	0
87.23	1
87.24	0
87.25	1
87.26	0
87.27	1
87.28	1
87.29	4
87.3	2
87.31	0
87.32	0
87.33	3
87.34	0
87.35	0
87.36	0
87.37	2
87.38	0
87.39	0
87.4	0
87.41	2
87.42	3
87.43	4
87.44	1
87.45	2
87.46	0
87.47	3
87.48	2
87.49	0
87.5	0
87.51	0
87.52	0
87.53	1
87.54	2
87.55	1
87.56	5
87.57	3
87.58	1
87.59	1
87.6	1
87.61	2
87.62	2
87.63	2
87.64	2
87.65	2
87.66	1
87.67	1
87.68	3
87.69	0
87.7	3
87.71	0
87.72	1
87.73	2
87.74	1
87.75	0
87.76	2
87.77	3
87.78	2
87.79	0
87.8	1
87.81	1
87.82	1
87.83	1
87.84	0
87.85	2
87.86	1
87.87	0
87.88	3
87.89	0
87.9	0
87.91	2
87.92	2
87.93	2
87.94	0
87.95	1
87.96	2
87.97	2
87.98	0
87.99	2
88	2
88.01	2
88.02	1
88.03	1
88.04	2
88.05	2
88.06	2
88.07	1
88.08	0
88.09	3
88.1	0
88.11	1
88.12	1
88.13	0
88.14	1
88.15	1
88.16	1
88.17	2
88.18	2
88.19	1
88.2	0
88.21	1
88.22	2
88.23	0
88.24	1
88.25	2
88.26	0
88.27	2
88.28	2
88.29	0
88.3	1
88.31	0
88.32	3
88.33	1
88.34	1
88.35	2
88.36	0
88.37	0
88.38	2
88.39	2
88.4	0
88.41	0
88.42	2
88.43	2
88.44	3
88.45	5
88.46	1
88.47	1
88.48	0
88.49	2
88.5	1
88.51	1
88.52	0
88.53	1
88.54	0
88.55	0
88.56	0
88.57	2
88.58	1
88.59	0
88.6	1
88.61	0
88.62	1
88.63	1
88.64	1
88.65	1
88.66	0
88.67	2
88.68	1
88.69	2
88.7	1
88.71	4
88.72	1
88.73	1
88.74	1
88.75	0
88.76	0
88.77	0
88.78	1
88.79	2
88.8	2
88.81	2
88.82	0
88.83	1
88.84	1
88.85	0
88.86	2
88.87	1
88.88	2
88.89	0
88.9	4
88.91	1
88.92	2
88.93	2
88.94	0
88.95	2
88.96	2
88.97	2
88.98	1
88.99	2
89	6
89.01	1
89.02	0
89.03	2
89.04	3
89.05	1
89.06	0
89.07	3
89.08	1
89.09	0
89.1	3
89.11	0
89.12	2
89.13	2
89.14	0
89.15	0
89.16	0
89.17	0
89.18	2
89.19	3
89.2	1
89.21	3
89.22	1
89.23	1
89.24	1
89.25	0
89.26	0
89.27	0
89.28	0
89.29	1
89.3	1
89.31	2
89.32	1
89.33	0
89.34	1
89.35	0
89.36	0
89.37	2
89.38	1
89.39	0
89.4	0
89.41	2
89.42	0
89.43	2
89.44	0
89.45	1
89.46	0
89.47	2
89.48	2
89.49	2
89.5	2
89.51	1
89.52	0
89.53	1
89.54	2
89.55	1
89.56	1
89.57	2
89.58	0
89.59	4
89.6	0
89.61	1
89.62	0
89.63	1
89.64	1
89.65	1
89.66	1
89.67	2
89.68	1
89.69	1
89.7	0
89.71	2
89.72	0
89.73	1
89.74	2
89.75	3
89.76	3
89.77	0
89.78	3
89.79	0
89.8	0
89.81	2
89.82	1
89.83	1
89.84	1
89.85	3
89.86	1
89.87	2
89.88	1
89.89	1
89.9	3
89.91	0
89.92	1
89.93	1
89.94	0
89.95	2
89.96	2
89.97	1
89.98	1
89.99	0
90	1
90.01	2
90.02	2
90.03	2
90.04	1
90.05	0
90.06	1
90.07	2
90.08	2
90.09	1
90.1	2
90.11	3
90.12	1
90.13	1
90.14	3
90.15	1
90.16	2
90.17	1
90.18	2
90.19	1
90.2	0
90.21	1
90.22	1
90.23	4
90.24	3
90.25	2
90.26	1
90.27	2
90.28	2
90.29	0
90.3	1
90.31	0
90.32	3
90.33	3
90.34	2
90.35	4
90.36	1
90.37	2
90.38	2
90.39	2
90.4	1
90.41	2
90.42	1
90.43	1
90.44	2
90.45	2
90.46	0
90.47	0
90.48	1
90.49	3
90.5	1
90.51	0
90.52	1
90.53	1
90.54	0
90.55	0
90.56	0
90.57	1
90.58	1
90.59	1
90.6	4
90.61	0
90.62	1
90.63	1
90.64	0
90.65	0
90.66	1
90.67	2
90.68	1
90.69	3
90.7	3
90.71	0
90.72	0
90.73	0
90.74	0
90.75	0
90.76	4
90.77	0
90.78	2
90.79	0
90.8	1
90.81	1
90.82	0
90.83	0
90.84	0
90.85	2
90.86	2
90.87	0
90.88	4
90.89	1
90.9	2
90.91	1
90.92	1
90.93	1
90.94	0
90.95	1
90.96	0
90.97	1
90.98	3
90.99	2
91	0
91.01	0
91.02	0
91.03	3
91.04	0
91.05	0
91.06	1
91.07	0
91.08	0
91.09	2
91.1	1
91.11	2
91.12	3
91.13	3
91.14	1
91.15	1
91.16	0
91.17	2
91.18	2
91.19	0
91.2	1
91.21	3
91.22	1
91.23	2
91.24	2
91.25	0
91.26	1
91.27	0
91.28	1
91.29	1
91.3	0
91.31	5
91.32	0
91.33	0
91.34	2
91.35	3
91.36	1
91.37	1
91.38	0
91.39	0
91.4	0
91.41	1
91.42	1
91.43	1
91.44	0
91.45	2
91.46	3
91.47	1
91.48	2
91.49	2
91.5	4
91.51	1
91.52	2
91.53	1
91.54	2
91.55	3
91.56	0
91.57	1
91.58	1
91.59	1
91.6	3
91.61	1
91.62	0
91.63	1
91.64	0
91.65	1
91.66	1
91.67	0
91.68	1
91.69	1
91.7	1
91.71	3
91.72	3
91.73	3
91.74	3
91.75	1
91.76	0
91.77	2
91.78	3
91.79	2
91.8	1
91.81	1
91.82	2
91.83	2
91.84	3
91.85	0
91.86	0
91.87	1
91.88	0
91.89	1
91.9	1
91.91	2
91.92	2
91.93	1
91.94	2
91.95	2
91.96	3
91.97	0
91.98	3
91.99	2
92	2
92.01	0
92.02	4
92.03	3
92.04	2
92.05	2
92.06	0
92.07	0
92.08	2
92.09	2
92.1	1
92.11	2
92.12	0
92.13	1
92.14	2
92.15	2
92.16	1
92.17	3
92.18	1
92.19	0
92.2	1
92.21	3
92.22	1
92.23	1
92.24	1
92.25	0
92.26	1
92.27	0
92.28	0
92.29	1
92.3	2
92.31	1
92.32	2
92.33	1
92.34	1
92.35	1
92.36	3
92.37	0
92.38	0
92.39	1
92.4	2
92.41	2
92.42	0
92.43	0
92.44	0
92.45	2
92.46	0
92.47	3
92.48	0
92.49	1
92.5	0
92.51	2
92.52	1
92.53	0
92.54	1
92.55	1
92.56	2
92.57	2
92.58	2
92.59	0
92.6	0
92.61	2
92.62	0
92.63	1
92.64	1
92.65	4
92.66	2
92.67	0
92.68	2
92.69	4
92.7	0
92.71	0
92.72	3
92.73	1
92.74	1
92.75	1
92.76	0
92.77	1
92.78	1
92.79	2
92.8	2
92.81	1
92.82	1
92.83	1
92.84	1
92.85	3
92.86	1
92.87	0
92.88	2
92.89	1
92.9	1
92.91	2
92.92	4
92.93	0
92.94	2
92.95	3
92.96	2
92.97	1
92.98	0
92.99	3
93	4
93.01	1
93.02	1
93.03	3
93.04	3
93.05	1
93.06	0
93.07	3
93.08	3
93.09	0
93.1	0
93.11	2
93.12	0
93.13	1
93.14	4
93.15	2
93.16	3
93.17	0
93.18	1
93.19	1
93.2	0
93.21	0
93.22	1
93.23	0
93.24	2
93.25	1
93.26	2
93.27	1
93.28	0
93.29	2
93.3	3
93.31	1
93.32	2
93.33	1
93.34	2
93.35	0
93.36	1
93.37	3
93.38	5
93.39	2
93.4	1
93.41	0
93.42	0
93.43	2
93.44	0
93.45	3
93.46	3
93.47	1
93.48	0
93.49	5
93.5	1
93.51	2
93.52	1
93.53	1
93.54	1
93.55	3
93.56	0
93.57	1
93.58	4
93.59	1
93.6	2
93.61	2
93.62	2
93.63	0
93.64	2
93.65	0
93.66	1
93.67	1
93.68	2
93.69	3
93.7	1
93.71	0
93.72	0
93.73	1
93.74	0
93.75	1
93.76	4
93.77	1
93.78	2
93.79	0
93.8	0
93.81	2
93.82	3
93.83	1
93.84	1
93.85	1
93.86	3
93.87	1
93.88	2
93.89	1
93.9	0
93.91	1
93.92	1
93.93	0
93.94	2
93.95	2
93.96	1
93.97	1
93.98	1
93.99	3
94	1
94.01	0
94.02	0
94.03	3
94.04	0
94.05	1
94.06	1
94.07	0
94.08	2
94.09	1
94.1	0
94.11	2
94.12	3
94.13	2
94.14	2
94.15	1
94.16	0
94.17	1
94.18	1
94.19	0
94.2	2
94.21	0
94.22	3
94.23	2
94.24	1
94.25	4
94.26	0
94.27	1
94.28	3
94.29	2
94.3	1
94.31	0
94.32	1
94.33	1
94.34	3
94.35	0
94.36	0
94.37	0
94.38	3
94.39	2
94.4	1
94.41	1
94.42	0
94.43	0
94.44	1
94.45	0
94.46	2
94.47	0
94.48	0
94.49	0
94.5	0
94.51	0
94.52	1
94.53	0
94.54	1
94.55	0
94.56	0
94.57	0
94.58	0
94.59	1
94.6	3
94.61	2
94.62	1
94.63	1
94.64	0
94.65	1
94.66	3
94.67	0
94.68	1
94.69	3
94.7	2
94.71	0
94.72	2
94.73	1
94.74	1
94.75	1
94.76	0
94.77	0
94.78	3
94.79	1
94.8	0
94.81	0
94.82	0
94.83	2
94.84	2
94.85	3
94.86	1
94.87	2
94.88	1
94.89	1
94.9	2
94.91	3
94.92	0
94.93	0
94.94	2
94.95	0
94.96	0
94.97	3
94.98	1
94.99	3
95	0
95.01	0
95.02	1
95.03	1
95.04	0
95.05	2
95.06	2
95.07	1
95.08	2
95.09	2
95.1	0
95.11	1
95.12	1
95.13	1
95.14	2
95.15	0
95.16	0
95.17	0
95.18	1
95.19	1
95.2	0
95.21	0
95.22	0
95.23	0
95.24	3
95.25	1
95.26	2
95.27	0
95.28	3
95.29	0
95.3	1
95.31	0
95.32	2
95.33	0
95.34	0
95.35	0
95.36	2
95.37	0
95.38	1
95.39	3
95.4	3
95.41	3
95.42	0
95.43	0
95.44	1
95.45	0
95.46	1
95.47	1
95.48	0
95.49	0
95.5	1
95.51	1
95.52	1
95.53	1
95.54	1
95.55	2
95.56	2
95.57	1
95.58	0
95.59	1
95.6	1
95.61	1
95.62	0
95.63	2
95.64	1
95.65	0
95.66	1
95.67	0
95.68	1
95.69	1
95.7	2
95.71	3
95.72	2
95.73	3
95.74	0
95.75	1
95.76	2
95.77	2
95.78	0
95.79	3
95.8	0
95.81	1
95.82	0
95.83	2
95.84	2
95.85	0
95.86	0
95.87	3
95.88	1
95.89	2
95.9	2
95.91	0
95.92	0
95.93	3
95.94	0
95.95	2
95.96	2
95.97	0
95.98	3
95.99	2
96	2
96.01	0
96.02	0
96.03	2
96.04	0
96.05	0
96.06	1
96.07	1
96.08	0
96.09	0
96.1	3
96.11	2
96.12	0
96.13	2
96.14	1
96.15	0
96.16	1
96.17	2
96.18	2
96.19	2
96.2	1
96.21	0
96.22	1
96.23	0
96.24	1
96.25	3
96.26	0
96.27	2
96.28	1
96.29	0
96.3	3
96.31	1
96.32	0
96.33	2
96.34	3
96.35	1
96.36	1
96.37	0
96.38	0
96.39	1
96.4	0
96.41	0
96.42	2
96.43	1
96.44	1
96.45	2
96.46	3
96.47	3
96.48	2
96.49	1
96.5	0
96.51	0
96.52	0
96.53	3
96.54	1
96.55	2
96.56	2
96.57	0
96.58	2
96.59	0
96.6	0
96.61	0
96.62	2
96.63	1
96.64	3
96.65	1
96.66	2
96.67	4
96.68	3
96.69	3
96.7	2
96.71	1
96.72	1
96.73	0
96.74	2
96.75	0
96.76	1
96.77	1
96.78	2
96.79	1
96.8	3
96.81	0
96.82	0
96.83	3
96.84	2
96.85	1
96.86	0
96.87	1
96.88	2
96.89	1
96.9	0
96.91	0
96.92	3
96.93	2
96.94	1
96.95	2
96.96	1
96.97	2
96.98	0
96.99	1
97	1
97.01	0
97.02	1
97.03	1
97.04	2
97.05	1
97.06	2
97.07	0
97.08	0
97.09	0
97.1	2
97.11	4
97.12	2
97.13	1
97.14	0
97.15	4
97.16	0
97.17	2
97.18	2
97.19	0
97.2	2
97.21	2
97.22	1
97.23	0
97.24	0
97.25	0
97.26	1
97.27	2
97.28	1
97.29	1
97.3	2
97.31	2
97.32	5
97.33	1
97.34	0
97.35	0
97.36	1
97.37	2
97.38	1
97.39	1
97.4	2
97.41	1
97.42	3
97.43	0
97.44	2
97.45	1
97.46	0
97.47	4
97.48	1
97.49	1
97.5	1
97.51	1
97.52	2
97.53	0
97.54	3
97.55	3
97.56	0
97.57	1
97.58	4
97.59	3
97.6	0
97.61	4
97.62	0
97.63	2
97.64	0
97.65	0
97.66	3
97.67	2
97.68	2
97.69	2
97.7	0
97.71	2
97.72	0
97.73	0
97.74	0
97.75	1
97.76	1
97.77	0
97.78	3
97.79	2
97.8	2
97.81	1
97.82	1
97.83	0
97.84	1
97.85	1
97.86	1
97.87	0
97.88	0
97.89	2
97.9	4
97.91	0
97.92	0
97.93	2
97.94	3
97.95	2
97.96	4
97.97	0
97.98	0
97.99	1
98	0
98.01	2
98.02	2
98.03	3
98.04	2
98.05	1
98.06	0
98.07	1
98.08	1
98.09	2
98.1	1
98.11	0
98.12	0
98.13	2
98.14	0
98.15	3
98.16	0
98.17	0
98.18	1
98.19	1
98.2	2
98.21	0
98.22	2
98.23	1
98.24	0
98.25	2
98.26	0
98.27	1
98.28	2
98.29	1
98.3	0
98.31	1
98.32	0
98.33	1
98.34	1
98.35	2
98.36	1
98.37	2
98.38	0
98.39	1
98.4	0
98.41	1
98.42	0
98.43	0
98.44	0
98.45	0
98.46	1
98.47	0
98.48	3
98.49	4
98.5	3
98.51	0
98.52	2
98.53	0
98.54	0
98.55	0
98.56	0
98.57	1
98.58	2
98.59	0
98.6	1
98.61	1
98.62	2
98.63	1
98.64	1
98.65	1
98.66	0
98.67	3
98.68	3
98.69	1
98.7	1
98.71	1
98.72	3
98.73	2
98.74	2
98.75	1
98.76	2
98.77	1
98.78	0
98.79	2
98.8	2
98.81	1
98.82	0
98.83	1
98.84	1
98.85	1
98.86	2
98.87	1
98.88	5
98.89	1
98.9	1
98.91	0
98.92	0
98.93	1
98.94	3
98.95	3
98.96	0
98.97	0
98.98	1
98.99	0
99	0
99.01	1
99.02	1
99.03	2
99.04	3
99.05	1
99.06	0
99.07	1
99.08	0
99.09	3
99.1	1
99.11	2
99.12	2
99.13	2
99.14	1
99.15	1
99.16	0
99.17	1
99.18	0
99.19	0
99.2	1
99.21	0
99.22	1
99.23	1
99.24	1
99.25	0
99.26	0
99.27	2
99.28	3
99.29	0
99.3	2
99.31	0
99.32	1
99.33	2
99.34	0
99.35	2
99.36	0
99.37	0
99.38	1
99.39	3
99.4	1
99.41	0
99.42	1
99.43	1
99.44	1
99.45	5
99.46	0
99.47	0
99.48	1
99.49	0
99.5	2
99.51	1
99.52	0
99.53	2
99.54	1
99.55	1
99.56	0
99.57	1
99.58	0
99.59	1
99.6	1
99.61	0
99.62	0
99.63	1
99.64	1
99.65	1
99.66	1
99.67	2
99.68	1
99.69	0
99.7	3
99.71	1
99.72	2
99.73	2
99.74	0
99.75	2
99.76	1
99.77	1
99.78	1
99.79	0
99.8	1
99.81	5
99.82	1
99.83	0
99.84	0
99.85	1
99.86	3
99.87	1
99.88	1
99.89	1
99.9	2
99.91	1
99.92	2
99.93	1
99.94	3
99.95	1
99.96	1
99.97	2
99.98	0
99.99	0
100	0
